# OpenSignals Text File Format. Version 1
# {"00:07:80:4B:29:5A": {"position": 0, "device": "biosignalsplux", "device name": "00:07:80:4B:29:5A", "device connection": "/dev/tty.biosignalsplux-Bluetoot", "sampling rate": 100, "resolution": [16, 16], "firmware version": 776, "comments": "", "keywords": "", "mode": 0, "sync interval": 2, "date": "2022-5-2", "time": "11:31:27.596", "channels": [1, 2], "sensor": ["RESPIRATION", "RESPIRATION"], "label": ["CH1", "CH2"], "column": ["nSeq", "DI", "CH1", "CH2"], "special": [{"SpO2": [80, 40, 5, 4, 3, 3]}, {"SpO2": [80, 40, 5, 4, 3, 3]}, {"SpO2": [80, 40, 5, 4, 3, 3]}, {"SpO2": [80, 40, 5, 4, 3, 3]}, {"SpO2": [80, 40, 5, 4, 3, 3]}, {"SpO2": [80, 40, 5, 4, 3, 3]}, {"SpO2": [80, 40, 5, 4, 3, 3]}, {"SpO2": [80, 40, 5, 4, 3, 3]}], "digital IO": [0, 1], "sleeve color": ["red", ""], "convertedValues": 1}}
# EndOfHeader
0.0	0.0	1.17371	1.15796	
1.0	0.0	1.16272	1.15356	
2.0	0.0	1.15649	1.14771	
3.0	0.0	1.14551	1.13947	
4.0	0.0	1.13965	1.13049	
5.0	0.0	1.12939	1.12665	
6.0	0.0	1.1239	1.12939	
7.0	0.0	1.11621	1.12079	
8.0	0.0	1.11255	1.11346	
9.0	0.0	1.10596	1.10687	
10.0	0.0	1.10413	1.10669	
11.0	0.0	1.099	1.09991	
12.0	0.0	1.09827	1.09534	
13.0	0.0	1.09277	1.0849	
14.0	0.0	1.09131	1.07959	
15.0	0.0	1.08691	1.06311	
16.0	0.0	1.09241	1.04865	
17.0	0.0	1.09644	1.02209	
18.0	0.0	1.10522	0.99719	
19.0	0.0	1.10925	0.95691	
20.0	0.0	1.11987	0.91653	
21.0	0.0	1.13232	0.86444	
22.0	0.0	1.15356	0.815	
23.0	0.0	1.17407	0.75806	
24.0	0.0	1.19806	0.70276	
25.0	0.0	1.21802	0.64783	
26.0	0.0	1.23962	0.58832	
27.0	0.0	1.25391	0.5354	
28.0	0.0	1.27039	0.47992	
29.0	0.0	1.28101	0.42371	
30.0	0.0	1.29456	0.3782	
31.0	0.0	1.30261	0.32318	
32.0	0.0	1.3147	0.27832	
33.0	0.0	1.32056	0.23694	
34.0	0.0	1.32861	0.19373	
35.0	0.0	1.33044	0.13348	
36.0	0.0	1.33594	0.11206	
37.0	0.0	1.3363	0.06024	
38.0	0.0	1.3396	0.02637	
39.0	0.0	1.3385	0.00073	
40.0	0.0	1.34106	-0.04175	
41.0	0.0	1.34015	-0.05237	
42.0	0.0	1.34143	-0.0921	
43.0	0.0	1.33887	-0.09796	
44.0	0.0	1.3374	-0.11243	
45.0	0.0	1.33228	-0.14594	
46.0	0.0	1.33154	-0.14191	
47.0	0.0	1.32422	-0.15564	
48.0	0.0	1.31799	-0.16113	
49.0	0.0	1.30811	-0.17139	
50.0	0.0	1.30042	-0.18365	
51.0	0.0	1.2876	-0.1886	
52.0	0.0	1.27954	-0.18054	
53.0	0.0	1.26581	-0.20435	
54.0	0.0	1.25647	-0.19171	
55.0	0.0	1.24292	-0.20032	
56.0	0.0	1.2334	-0.19299	
57.0	0.0	1.21912	-0.19592	
58.0	0.0	1.20996	-0.17853	
59.0	0.0	1.19641	-0.17633	
60.0	0.0	1.18726	-0.1713	
61.0	0.0	1.17334	-0.17212	
62.0	0.0	1.16455	-0.17899	
63.0	0.0	1.15063	-0.16644	
64.0	0.0	1.14148	-0.17212	
65.0	0.0	1.12866	-0.15692	
66.0	0.0	1.12097	-0.14758	
67.0	0.0	1.10889	-0.14117	
68.0	0.0	1.10046	-0.13477	
69.0	0.0	1.08801	-0.13403	
70.0	0.0	1.07959	-0.09979	
71.0	0.0	1.06787	-0.0954	
72.0	0.0	1.06018	-0.0802	
73.0	0.0	1.05029	-0.07672	
74.0	0.0	1.04443	-0.052	
75.0	0.0	1.03601	-0.04605	
76.0	0.0	1.03198	-0.02362	
77.0	0.0	1.02539	-0.01666	
78.0	0.0	1.02301	0.00027	
79.0	0.0	1.01807	0.00256	
80.0	0.0	1.01697	0.03424	
81.0	0.0	1.01404	0.0515	
82.0	0.0	1.01514	0.06262	
83.0	0.0	1.0144	0.08917	
84.0	0.0	1.0177	0.10455	
85.0	0.0	1.01917	0.13367	
86.0	0.0	1.02612	0.15399	
87.0	0.0	1.03198	0.17871	
88.0	0.0	1.04407	0.19263	
89.0	0.0	1.05103	0.21533	
90.0	0.0	1.06055	0.23053	
91.0	0.0	1.06714	0.25708	
92.0	0.0	1.07776	0.27924	
93.0	0.0	1.08618	0.29324	
94.0	0.0	1.09827	0.31732	
95.0	0.0	1.10742	0.32666	
96.0	0.0	1.12006	0.35046	
97.0	0.0	1.12976	0.36172	
98.0	0.0	1.14221	0.39514	
99.0	0.0	1.14734	0.39844	
100.0	0.0	1.15723	0.41418	
101.0	0.0	1.16235	0.43707	
102.0	0.0	1.17224	0.4444	
103.0	0.0	1.17737	0.453	
104.0	0.0	1.18579	0.47095	
105.0	0.0	1.19092	0.48047	
106.0	0.0	1.19824	0.48212	
107.0	0.0	1.2019	0.48505	
108.0	0.0	1.20813	0.48926	
109.0	0.0	1.21216	0.49109	
110.0	0.0	1.21802	0.49072	
111.0	0.0	1.22241	0.48468	
112.0	0.0	1.22974	0.48413	
113.0	0.0	1.2312	0.47974	
114.0	0.0	1.23779	0.47717	
115.0	0.0	1.23999	0.46893	
116.0	0.0	1.24548	0.46619	
117.0	0.0	1.24548	0.45575	
118.0	0.0	1.25171	0.44714	
119.0	0.0	1.25391	0.44073	
120.0	0.0	1.25958	0.42975	
121.0	0.0	1.26013	0.42242	
122.0	0.0	1.26489	0.41492	
123.0	0.0	1.26562	0.38983	
124.0	0.0	1.27112	0.38177	
125.0	0.0	1.27148	0.37006	
126.0	0.0	1.27588	0.36017	
127.0	0.0	1.27588	0.35422	
128.0	0.0	1.28027	0.34012	
129.0	0.0	1.27844	0.33124	
130.0	0.0	1.2821	0.32135	
131.0	0.0	1.2821	0.29517	
132.0	0.0	1.28467	0.2937	
133.0	0.0	1.2832	0.2785	
134.0	0.0	1.2865	0.26697	
135.0	0.0	1.28412	0.25708	
136.0	0.0	1.28723	0.24939	
137.0	0.0	1.28687	0.23712	
138.0	0.0	1.29126	0.23181	
139.0	0.0	1.29126	0.22137	
140.0	0.0	1.29584	0.21387	
141.0	0.0	1.29602	0.21222	
142.0	0.0	1.29932	0.21126	
143.0	0.0	1.29913	0.20526	
144.0	0.0	1.30188	0.20453	
145.0	0.0	1.30005	0.19904	
146.0	0.0	1.30298	0.20142	
147.0	0.0	1.30151	0.19189	
148.0	0.0	1.30334	0.19208	
149.0	0.0	1.30151	0.17853	
150.0	0.0	1.30334	0.16827	
151.0	0.0	1.30078	0.1745	
152.0	0.0	1.3017	0.16571	
153.0	0.0	1.30042	0.14795	
154.0	0.0	1.30225	0.16022	
155.0	0.0	1.30042	0.15372	
156.0	0.0	1.30334	0.15198	
157.0	0.0	1.30261	0.14172	
158.0	0.0	1.30554	0.14703	
159.0	0.0	1.30701	0.13312	
160.0	0.0	1.31287	0.12634	
161.0	0.0	1.31287	0.13477	
162.0	0.0	1.31873	0.1192	
163.0	0.0	1.31982	0.11444	
164.0	0.0	1.32623	0.12982	
165.0	0.0	1.32971	0.11975	
166.0	0.0	1.3374	0.1236	
167.0	0.0	1.34143	0.11975	
168.0	0.0	1.34985	0.11279	
169.0	0.0	1.35352	0.11719	
170.0	0.0	1.36121	0.13989	
171.0	0.0	1.36304	0.1377	
172.0	0.0	1.36963	0.14355	
173.0	0.0	1.37073	0.13733	
174.0	0.0	1.37878	0.14594	
175.0	0.0	1.38245	0.12854	
176.0	0.0	1.38977	0.15051	
177.0	0.0	1.3927	0.1463	
178.0	0.0	1.39819	0.15857	
179.0	0.0	1.40039	0.16306	
180.0	0.0	1.40442	0.16388	
181.0	0.0	1.40552	0.16296	
182.0	0.0	1.41064	0.16406	
183.0	0.0	1.41138	0.1626	
184.0	0.0	1.4165	0.16333	
185.0	0.0	1.41577	0.14337	
186.0	0.0	1.41907	0.16498	
187.0	0.0	1.4176	0.15527	
188.0	0.0	1.422	0.15747	
189.0	0.0	1.42163	0.13824	
190.0	0.0	1.42529	0.14667	
191.0	0.0	1.42383	0.1593	
192.0	0.0	1.42749	0.15985	
193.0	0.0	1.42676	0.15253	
194.0	0.0	1.43042	0.15491	
195.0	0.0	1.42896	0.15088	
196.0	0.0	1.43262	0.16058	
197.0	0.0	1.4306	0.13971	
198.0	0.0	1.43335	0.16223	
199.0	0.0	1.43188	0.14557	
200.0	0.0	1.43518	0.15491	
201.0	0.0	1.43408	0.16388	
202.0	0.0	1.43774	0.16663	
203.0	0.0	1.43518	0.15527	
204.0	0.0	1.43665	0.16438	
205.0	0.0	1.43335	0.16974	
206.0	0.0	1.43298	0.15857	
207.0	0.0	1.42822	0.16663	
208.0	0.0	1.42822	0.17267	
209.0	0.0	1.42493	0.16846	
210.0	0.0	1.42566	0.16699	
211.0	0.0	1.42236	0.18494	
212.0	0.0	1.42383	0.18567	
213.0	0.0	1.4198	0.18658	
214.0	0.0	1.4209	0.19446	
215.0	0.0	1.41797	0.18091	
216.0	0.0	1.41943	0.20251	
217.0	0.0	1.41669	0.20892	
218.0	0.0	1.41833	0.20343	
219.0	0.0	1.41577	0.2179	
220.0	0.0	1.4165	0.2168	
221.0	0.0	1.41321	0.22266	
222.0	0.0	1.41431	0.21387	
223.0	0.0	1.41064	0.22449	
224.0	0.0	1.41211	0.21826	
225.0	0.0	1.41064	0.21277	
226.0	0.0	1.41376	0.2406	
227.0	0.0	1.41211	0.2347	
228.0	0.0	1.41577	0.24042	
229.0	0.0	1.41467	0.24243	
230.0	0.0	1.4176	0.24884	
231.0	0.0	1.42017	0.24939	
232.0	0.0	1.42493	0.26898	
233.0	0.0	1.42511	0.27649	
234.0	0.0	1.42932	0.27924	
235.0	0.0	1.42932	0.28967	
236.0	0.0	1.43408	0.30304	
237.0	0.0	1.43481	0.31128	
238.0	0.0	1.43958	0.33417	
239.0	0.0	1.43976	0.32904	
240.0	0.0	1.44434	0.35733	
241.0	0.0	1.44507	0.38489	
242.0	0.0	1.448	0.41418	
243.0	0.0	1.44727	0.44563	
244.0	0.0	1.45038	0.48578	
245.0	0.0	1.44946	0.5343	
246.0	0.0	1.45239	0.58466	
247.0	0.0	1.45166	0.63208	
248.0	0.0	1.45532	0.68335	
249.0	0.0	1.45312	0.73425	
250.0	0.0	1.45679	0.77765	
251.0	0.0	1.45496	0.81702	
252.0	0.0	1.45752	0.86133	
253.0	0.0	1.45532	0.89246	
254.0	0.0	1.45679	0.9278	
255.0	0.0	1.45459	0.95755	
256.0	0.0	1.45679	0.98694	
257.0	0.0	1.45422	1.01276	
258.0	0.0	1.45569	1.04004	
259.0	0.0	1.45166	1.06238	
260.0	0.0	1.45239	1.08838	
261.0	0.0	1.44946	1.10614	
262.0	0.0	1.4502	1.12756	
263.0	0.0	1.44507	1.14441	
264.0	0.0	1.44507	1.15851	
265.0	0.0	1.44067	1.17334	
266.0	0.0	1.4425	1.18872	
267.0	0.0	1.43866	1.19348	
268.0	0.0	1.43958	1.21344	
269.0	0.0	1.43481	1.22131	
270.0	0.0	1.43481	1.23065	
271.0	0.0	1.42896	1.23724	
272.0	0.0	1.42896	1.24915	
273.0	0.0	1.42456	1.25024	
274.0	0.0	1.42438	1.25867	
275.0	0.0	1.41907	1.25977	
276.0	0.0	1.41833	1.26233	
277.0	0.0	1.41174	1.25903	
278.0	0.0	1.4101	1.26233	
279.0	0.0	1.40405	1.26086	
280.0	0.0	1.40295	1.26416	
281.0	0.0	1.396	1.26288	
282.0	0.0	1.3949	1.26691	
283.0	0.0	1.38757	1.26379	
284.0	0.0	1.38501	1.26123	
285.0	0.0	1.37769	1.26416	
286.0	0.0	1.37421	1.25812	
287.0	0.0	1.36597	1.26141	
288.0	0.0	1.3623	1.25885	
289.0	0.0	1.35352	1.25354	
290.0	0.0	1.34839	1.24915	
291.0	0.0	1.3396	1.24146	
292.0	0.0	1.33521	1.23834	
293.0	0.0	1.32751	1.22992	
294.0	0.0	1.3233	1.22644	
295.0	0.0	1.31653	1.21692	
296.0	0.0	1.31433	1.21143	
297.0	0.0	1.30774	1.20044	
298.0	0.0	1.30518	1.19531	
299.0	0.0	1.29895	1.18597	
300.0	0.0	1.2973	1.17792	
301.0	0.0	1.29053	1.16235	
302.0	0.0	1.29126	1.16199	
303.0	0.0	1.28705	1.14972	
304.0	0.0	1.28906	1.14532	
305.0	0.0	1.28687	1.13489	
306.0	0.0	1.28906	1.12775	
307.0	0.0	1.2865	1.12244	
308.0	0.0	1.28979	1.11621	
309.0	0.0	1.28723	1.09973	
310.0	0.0	1.28979	1.09662	
311.0	0.0	1.2865	1.08398	
312.0	0.0	1.2876	1.08179	
313.0	0.0	1.28467	1.07281	
314.0	0.0	1.28577	1.07336	
315.0	0.0	1.28394	1.06622	
316.0	0.0	1.28778	1.07007	
317.0	0.0	1.28796	1.06238	
318.0	0.0	1.29309	1.06238	
319.0	0.0	1.29346	1.05615	
320.0	0.0	1.29895	1.05414	
321.0	0.0	1.29895	1.04553	
322.0	0.0	1.30389	1.04645	
323.0	0.0	1.30298	1.03729	
324.0	0.0	1.30664	1.03583	
325.0	0.0	1.30518	1.02759	
326.0	0.0	1.30811	1.02356	
327.0	0.0	1.30774	1.0144	
328.0	0.0	1.31177	1.01147	
329.0	0.0	1.30957	1.00305	
330.0	0.0	1.31177	1.00031	
331.0	0.0	1.30811	0.98914	
332.0	0.0	1.31104	0.98914	
333.0	0.0	1.30847	0.98346	
334.0	0.0	1.30957	0.9798	
335.0	0.0	1.30664	0.97192	
336.0	0.0	1.30737	0.96826	
337.0	0.0	1.30591	0.96075	
338.0	0.0	1.3092	0.96112	
339.0	0.0	1.30847	0.95343	
340.0	0.0	1.31067	0.95215	
341.0	0.0	1.30811	0.94336	
342.0	0.0	1.3103	0.94354	
343.0	0.0	1.30774	0.93768	
344.0	0.0	1.31067	0.93777	
345.0	0.0	1.30737	0.93219	
346.0	0.0	1.3092	0.93292	
347.0	0.0	1.30591	0.92798	
348.0	0.0	1.30518	0.92816	
349.0	0.0	1.29968	0.92377	
350.0	0.0	1.29932	0.92578	
351.0	0.0	1.29419	0.9223	
352.0	0.0	1.29492	0.92596	
353.0	0.0	1.28979	0.92358	
354.0	0.0	1.28943	0.92725	
355.0	0.0	1.28394	0.92432	
356.0	0.0	1.28247	0.92688	
357.0	0.0	1.27515	0.92725	
358.0	0.0	1.27478	0.93109	
359.0	0.0	1.26801	0.93091	
360.0	0.0	1.26636	0.93201	
361.0	0.0	1.2594	0.93329	
362.0	0.0	1.2572	0.93677	
363.0	0.0	1.25061	0.93237	
364.0	0.0	1.24805	0.93585	
365.0	0.0	1.24219	0.93311	
366.0	0.0	1.24219	0.93439	
367.0	0.0	1.23779	0.92871	
368.0	0.0	1.24036	0.92853	
369.0	0.0	1.23706	0.92285	
370.0	0.0	1.23706	0.91919	
371.0	0.0	1.23303	0.91516	
372.0	0.0	1.23633	0.91351	
373.0	0.0	1.23706	0.90656	
374.0	0.0	1.24292	0.90564	
375.0	0.0	1.2431	0.89703	
376.0	0.0	1.24567	0.8985	
377.0	0.0	1.24585	0.89026	
378.0	0.0	1.25098	0.88916	
379.0	0.0	1.25061	0.88	
380.0	0.0	1.25574	0.87524	
381.0	0.0	1.25574	0.86407	
382.0	0.0	1.25977	0.85876	
383.0	0.0	1.2583	0.85126	
384.0	0.0	1.26086	0.8476	
385.0	0.0	1.2594	0.84082	
386.0	0.0	1.26196	0.83899	
387.0	0.0	1.26196	0.82874	
388.0	0.0	1.26636	0.82837	
389.0	0.0	1.26672	0.82141	
390.0	0.0	1.27002	0.81665	
391.0	0.0	1.26855	0.80603	
392.0	0.0	1.27112	0.80109	
393.0	0.0	1.26801	0.78955	
394.0	0.0	1.27039	0.77875	
395.0	0.0	1.26746	0.76245	
396.0	0.0	1.26965	0.75165	
397.0	0.0	1.26672	0.73499	
398.0	0.0	1.26709	0.724	
399.0	0.0	1.26379	0.70679	
400.0	0.0	1.26343	0.69012	
401.0	0.0	1.25977	0.66815	
402.0	0.0	1.2616	0.64929	
403.0	0.0	1.2583	0.62439	
404.0	0.0	1.25977	0.60443	
405.0	0.0	1.25757	0.57184	
406.0	0.0	1.26123	0.55371	
407.0	0.0	1.26196	0.52332	
408.0	0.0	1.26965	0.51013	
409.0	0.0	1.27295	0.47351	
410.0	0.0	1.2821	0.44897	
411.0	0.0	1.28723	0.41968	
412.0	0.0	1.29712	0.39166	
413.0	0.0	1.30188	0.36823	
414.0	0.0	1.3092	0.33545	
415.0	0.0	1.31049	0.28784	
416.0	0.0	1.31396	0.25067	
417.0	0.0	1.31396	0.20343	
418.0	0.0	1.31763	0.16425	
419.0	0.0	1.3158	0.12799	
420.0	0.0	1.31873	0.08533	
421.0	0.0	1.31763	0.04944	
422.0	0.0	1.32019	0.01227	
423.0	0.0	1.31836	-0.02692	
424.0	0.0	1.31946	-0.04724	
425.0	0.0	1.31415	-0.09393	
426.0	0.0	1.3125	-0.10876	
427.0	0.0	1.30664	-0.13751	
428.0	0.0	1.30444	-0.16846	
429.0	0.0	1.29785	-0.18777	
430.0	0.0	1.29602	-0.21222	
431.0	0.0	1.28943	-0.24078	
432.0	0.0	1.28796	-0.26239	
433.0	0.0	1.28174	-0.28857	
434.0	0.0	1.28046	-0.3111	
435.0	0.0	1.27625	-0.32977	
436.0	0.0	1.27588	-0.34753	
437.0	0.0	1.27185	-0.37225	
438.0	0.0	1.27295	-0.3924	
439.0	0.0	1.26855	-0.39111	
440.0	0.0	1.27002	-0.40375	
441.0	0.0	1.26709	-0.41034	
442.0	0.0	1.27075	-0.41748	
443.0	0.0	1.27185	-0.42828	
444.0	0.0	1.27698	-0.44824	
445.0	0.0	1.27881	-0.4444	
446.0	0.0	1.2854	-0.44696	
447.0	0.0	1.28833	-0.45978	
448.0	0.0	1.29712	-0.45108	
449.0	0.0	1.30261	-0.44861	
450.0	0.0	1.31287	-0.44769	
451.0	0.0	1.32056	-0.46252	
452.0	0.0	1.33301	-0.44788	
453.0	0.0	1.34033	-0.4422	
454.0	0.0	1.35205	-0.42993	
455.0	0.0	1.35608	-0.43982	
456.0	0.0	1.3656	-0.42975	
457.0	0.0	1.36963	-0.42188	
458.0	0.0	1.37915	-0.40137	
459.0	0.0	1.38281	-0.39569	
460.0	0.0	1.3916	-0.39752	
461.0	0.0	1.39307	-0.39276	
462.0	0.0	1.40039	-0.38232	
463.0	0.0	1.40149	-0.37115	
464.0	0.0	1.40662	-0.34753	
465.0	0.0	1.40735	-0.34698	
466.0	0.0	1.41248	-0.31604	
467.0	0.0	1.41321	-0.30798	
468.0	0.0	1.41833	-0.29398	
469.0	0.0	1.4187	-0.27118	
470.0	0.0	1.42291	-0.26093	
471.0	0.0	1.42273	-0.2439	
472.0	0.0	1.42822	-0.20233	
473.0	0.0	1.43042	-0.19263	
474.0	0.0	1.43591	-0.17981	
475.0	0.0	1.43555	-0.16516	
476.0	0.0	1.43994	-0.11865	
477.0	0.0	1.43774	-0.08533	
478.0	0.0	1.43958	-0.05786	
479.0	0.0	1.43591	-0.01575	
480.0	0.0	1.43738	0.03387	
481.0	0.0	1.43079	0.06134	
482.0	0.0	1.43005	0.12012	
483.0	0.0	1.42438	0.16882	
484.0	0.0	1.4209	0.21112	
485.0	0.0	1.41211	0.24078	
486.0	0.0	1.40845	0.29279	
487.0	0.0	1.39929	0.33472	
488.0	0.0	1.3938	0.36768	
489.0	0.0	1.38501	0.40027	
490.0	0.0	1.37878	0.43506	
491.0	0.0	1.36816	0.46545	
492.0	0.0	1.3634	0.48413	
493.0	0.0	1.35388	0.48798	
494.0	0.0	1.35022	0.51068	
495.0	0.0	1.3418	0.52148	
496.0	0.0	1.33759	0.53284	
497.0	0.0	1.32733	0.54089	
498.0	0.0	1.32166	0.53339	
499.0	0.0	1.31067	0.52423	
500.0	0.0	1.30371	0.51874	
501.0	0.0	1.29016	0.51013	
502.0	0.0	1.28027	0.49988	
503.0	0.0	1.26343	0.48138	
504.0	0.0	1.25317	0.4801	
505.0	0.0	1.23779	0.46216	
506.0	0.0	1.229	0.44971	
507.0	0.0	1.21637	0.4292	
508.0	0.0	1.20996	0.39688	
509.0	0.0	1.19751	0.37775	
510.0	0.0	1.18982	0.34918	
511.0	0.0	1.17773	0.32117	
512.0	0.0	1.17041	0.30267	
513.0	0.0	1.15942	0.27356	
514.0	0.0	1.15466	0.25635	
515.0	0.0	1.14624	0.22211	
516.0	0.0	1.14185	0.19208	
517.0	0.0	1.13269	0.16058	
518.0	0.0	1.12537	0.12781	
519.0	0.0	1.11328	0.09869	
520.0	0.0	1.10303	0.07379	
521.0	0.0	1.08636	0.04742	
522.0	0.0	1.07703	0.03021	
523.0	0.0	1.06201	0.01611	
524.0	0.0	1.05505	-0.00677	
525.0	0.0	1.04187	-0.02161	
526.0	0.0	1.03418	-0.02618	
527.0	0.0	1.02063	-0.03772	
528.0	0.0	1.01294	-0.04047	
529.0	0.0	0.99976	-0.06134	
530.0	0.0	0.98914	-0.07031	
531.0	0.0	0.97375	-0.08643	
532.0	0.0	0.96167	-0.09064	
533.0	0.0	0.94482	-0.10767	
534.0	0.0	0.93311	-0.12231	
535.0	0.0	0.91736	-0.12122	
536.0	0.0	0.90454	-0.13275	
537.0	0.0	0.8866	-0.13971	
538.0	0.0	0.87268	-0.14172	
539.0	0.0	0.85291	-0.14886	
540.0	0.0	0.83936	-0.14978	
541.0	0.0	0.82178	-0.1593	
542.0	0.0	0.80933	-0.16809	
543.0	0.0	0.7923	-0.16553	
544.0	0.0	0.77966	-0.1701	
545.0	0.0	0.76282	-0.17358	
546.0	0.0	0.75	-0.17825	
547.0	0.0	0.73315	-0.18347	
548.0	0.0	0.72327	-0.18402	
549.0	0.0	0.70935	-0.18365	
550.0	0.0	0.70166	-0.17761	
551.0	0.0	0.69012	-0.18549	
552.0	0.0	0.68262	-0.18311	
553.0	0.0	0.66943	-0.18494	
554.0	0.0	0.66064	-0.16553	
555.0	0.0	0.64673	-0.16754	
556.0	0.0	0.63666	-0.15784	
557.0	0.0	0.62201	-0.1615	
558.0	0.0	0.6123	-0.14374	
559.0	0.0	0.59821	-0.14703	
560.0	0.0	0.58759	-0.12744	
561.0	0.0	0.57202	-0.12378	
562.0	0.0	0.55957	-0.11554	
563.0	0.0	0.54163	-0.09265	
564.0	0.0	0.52808	-0.08221	
565.0	0.0	0.50977	-0.07471	
566.0	0.0	0.49475	-0.05603	
567.0	0.0	0.47498	-0.04655	
568.0	0.0	0.45959	-0.02948	
569.0	0.0	0.43945	-0.02032	
570.0	0.0	0.42224	-0.00531	
571.0	0.0	0.40155	0.00183	
572.0	0.0	0.38525	0.0097	
573.0	0.0	0.36493	0.01126	
574.0	0.0	0.34918	0.01849	
575.0	0.0	0.33032	0.02051	
576.0	0.0	0.31604	0.0282	
577.0	0.0	0.29828	0.02692	
578.0	0.0	0.28528	0.03131	
579.0	0.0	0.2677	0.03021	
580.0	0.0	0.25507	0.03461	
581.0	0.0	0.23712	0.03571	
582.0	0.0	0.22211	0.03955	
583.0	0.0	0.20087	0.03392	
584.0	0.0	0.18384	0.03204	
585.0	0.0	0.16351	0.02454	
586.0	0.0	0.14868	0.01923	
587.0	0.0	0.12891	0.00815	
588.0	0.0	0.11353	0.00165	
589.0	0.0	0.09393	-0.01053	
590.0	0.0	0.07745	-0.01794	
591.0	0.0	0.05713	-0.02692	
592.0	0.0	0.04047	-0.03387	
593.0	0.0	0.02032	-0.05072	
594.0	0.0	0.0033	-0.05109	
595.0	0.0	-0.01849	-0.06335	
596.0	0.0	-0.03607	-0.06821	
597.0	0.0	-0.05676	-0.08185	
598.0	0.0	-0.07324	-0.09622	
599.0	0.0	-0.09375	-0.10382	
600.0	0.0	-0.11023	-0.11041	
601.0	0.0	-0.1311	-0.12323	
602.0	0.0	-0.14795	-0.1355	
603.0	0.0	-0.16974	-0.14374	
604.0	0.0	-0.18677	-0.14969	
605.0	0.0	-0.20764	-0.16223	
606.0	0.0	-0.22339	-0.16315	
607.0	0.0	-0.24426	-0.17633	
608.0	0.0	-0.26038	-0.17926	
609.0	0.0	-0.28015	-0.1886	
610.0	0.0	-0.2959	-0.19611	
611.0	0.0	-0.31549	-0.20087	
612.0	0.0	-0.32941	-0.19702	
613.0	0.0	-0.3468	-0.20911	
614.0	0.0	-0.36017	-0.20398	
615.0	0.0	-0.37756	-0.2027	
616.0	0.0	-0.38965	-0.21021	
617.0	0.0	-0.40723	-0.2124	
618.0	0.0	-0.41968	-0.20654	
619.0	0.0	-0.4368	-0.21661	
620.0	0.0	-0.44861	-0.2179	
621.0	0.0	-0.46472	-0.21881	
622.0	0.0	-0.47589	-0.20636	
623.0	0.0	-0.492	-0.21405	
624.0	0.0	-0.50391	-0.20508	
625.0	0.0	-0.51984	-0.20636	
626.0	0.0	-0.53174	-0.20251	
627.0	0.0	-0.54675	-0.20984	
628.0	0.0	-0.55627	-0.19775	
629.0	0.0	-0.56836	-0.19043	
630.0	0.0	-0.57422	-0.18567	
631.0	0.0	-0.58282	-0.1875	
632.0	0.0	-0.58191	-0.18384	
633.0	0.0	-0.58246	-0.18365	
634.0	0.0	-0.57532	-0.16077	
635.0	0.0	-0.57184	-0.15399	
636.0	0.0	-0.5636	-0.14465	
637.0	0.0	-0.55975	-0.14227	
638.0	0.0	-0.55206	-0.12817	
639.0	0.0	-0.54932	-0.12396	
640.0	0.0	-0.54126	-0.104	
641.0	0.0	-0.53394	-0.08148	
642.0	0.0	-0.52112	-0.0705	
643.0	0.0	-0.51086	-0.04596	
644.0	0.0	-0.49841	-0.02271	
645.0	0.0	-0.49475	-0.00842	
646.0	0.0	-0.48889	0.00824	
647.0	0.0	-0.48907	0.01758	
648.0	0.0	-0.48358	0.04651	
649.0	0.0	-0.48175	0.05383	
650.0	0.0	-0.47278	0.08148	
651.0	0.0	-0.46692	0.09631	
652.0	0.0	-0.45447	0.11389	
653.0	0.0	-0.4455	0.13037	
654.0	0.0	-0.4314	0.14703	
655.0	0.0	-0.41949	0.15491	
656.0	0.0	-0.40155	0.16351	
657.0	0.0	-0.38635	0.16388	
658.0	0.0	-0.36365	0.16315	
659.0	0.0	-0.34167	0.15765	
660.0	0.0	-0.31274	0.16608	
661.0	0.0	-0.28802	0.16937	
662.0	0.0	-0.25818	0.16699	
663.0	0.0	-0.23309	0.15472	
664.0	0.0	-0.20306	0.15198	
665.0	0.0	-0.17761	0.13531	
666.0	0.0	-0.14758	0.1355	
667.0	0.0	-0.12341	0.12955	
668.0	0.0	-0.09467	0.14081	
669.0	0.0	-0.07141	0.13824	
670.0	0.0	-0.04248	0.13934	
671.0	0.0	-0.01831	0.13092	
672.0	0.0	0.01062	0.12817	
673.0	0.0	0.03479	0.11371	
674.0	0.0	0.06226	0.09448	
675.0	0.0	0.08423	0.08231	
676.0	0.0	0.11023	0.08075	
677.0	0.0	0.12964	0.07452	
678.0	0.0	0.15454	0.08459	
679.0	0.0	0.17358	0.08514	
680.0	0.0	0.19446	0.08954	
681.0	0.0	0.21021	0.08821	
682.0	0.0	0.23035	0.09869	
683.0	0.0	0.24463	0.09558	
684.0	0.0	0.26367	0.09631	
685.0	0.0	0.27832	0.08771	
686.0	0.0	0.29663	0.08368	
687.0	0.0	0.31073	0.07617	
688.0	0.0	0.32904	0.08038	
689.0	0.0	0.34314	0.08423	
690.0	0.0	0.36255	0.09375	
691.0	0.0	0.37793	0.09961	
692.0	0.0	0.39917	0.10822	
693.0	0.0	0.41528	0.11078	
694.0	0.0	0.43542	0.11938	
695.0	0.0	0.44971	0.12433	
696.0	0.0	0.46875	0.13275	
697.0	0.0	0.4834	0.1344	
698.0	0.0	0.50372	0.13907	
699.0	0.0	0.52039	0.13733	
700.0	0.0	0.54016	0.13843	
701.0	0.0	0.55627	0.13715	
702.0	0.0	0.57568	0.1366	
703.0	0.0	0.59106	0.13202	
704.0	0.0	0.61084	0.13037	
705.0	0.0	0.62769	0.13239	
706.0	0.0	0.64966	0.13715	
707.0	0.0	0.66815	0.14172	
708.0	0.0	0.69141	0.15271	
709.0	0.0	0.70972	0.15088	
710.0	0.0	0.73315	0.1626	
711.0	0.0	0.7522	0.16351	
712.0	0.0	0.7782	0.16681	
713.0	0.0	0.7998	0.16589	
714.0	0.0	0.82855	0.16736	
715.0	0.0	0.85437	0.15637	
716.0	0.0	0.88513	0.16113	
717.0	0.0	0.91406	0.16003	
718.0	0.0	0.94702	0.1626	
719.0	0.0	0.97742	0.16205	
720.0	0.0	1.00781	0.18604	
721.0	0.0	1.03601	0.19135	
722.0	0.0	1.06165	0.19611	
723.0	0.0	1.08325	0.18933	
724.0	0.0	1.10724	0.1853	
725.0	0.0	1.12793	0.19189	
726.0	0.0	1.14917	0.18512	
727.0	0.0	1.16675	0.17413	
728.0	0.0	1.18579	0.17047	
729.0	0.0	1.20062	0.16434	
730.0	0.0	1.21802	0.15674	
731.0	0.0	1.22992	0.1496	
732.0	0.0	1.24512	0.1637	
733.0	0.0	1.25574	0.16406	
734.0	0.0	1.26929	0.18054	
735.0	0.0	1.27734	0.18365	
736.0	0.0	1.2887	0.1701	
737.0	0.0	1.29712	0.16956	
738.0	0.0	1.30957	0.16406	
739.0	0.0	1.31689	0.14978	
740.0	0.0	1.32751	0.13788	
741.0	0.0	1.33374	0.14355	
742.0	0.0	1.34363	0.14685	
743.0	0.0	1.34857	0.15894	
744.0	0.0	1.35754	0.17212	
745.0	0.0	1.36432	0.18256	
746.0	0.0	1.37183	0.20233	
747.0	0.0	1.37988	0.20801	
748.0	0.0	1.38684	0.21716	
749.0	0.0	1.39343	0.25012	
750.0	0.0	1.39819	0.27576	
751.0	0.0	1.396	0.30359	
752.0	0.0	1.40112	0.35413	
753.0	0.0	1.40259	0.40063	
754.0	0.0	1.40808	0.45721	
755.0	0.0	1.41064	0.49622	
756.0	0.0	1.4165	0.5462	
757.0	0.0	1.4209	0.58447	
758.0	0.0	1.42529	0.61285	
759.0	0.0	1.43005	0.64636	
760.0	0.0	1.43372	0.69269	
761.0	0.0	1.43774	0.72198	
762.0	0.0	1.44177	0.76721	
763.0	0.0	1.4458	0.80891	
764.0	0.0	1.44727	0.84993	
765.0	0.0	1.45093	0.88037	
766.0	0.0	1.45386	0.91516	
767.0	0.0	1.45605	0.94299	
768.0	0.0	1.45862	0.97504	
769.0	0.0	1.46045	0.99792	
770.0	0.0	1.46338	1.02466	
771.0	0.0	1.46521	1.04329	
772.0	0.0	1.46667	1.06952	
773.0	0.0	1.46265	1.08856	
774.0	0.0	1.46411	1.11072	
775.0	0.0	1.46301	1.12738	
776.0	0.0	1.46576	1.14716	
777.0	0.0	1.46667	1.16382	
778.0	0.0	1.46851	1.18066	
779.0	0.0	1.46667	1.19147	
780.0	0.0	1.46851	1.20428	
781.0	0.0	1.46631	1.21124	
782.0	0.0	1.46814	1.22681	
783.0	0.0	1.46375	1.23157	
784.0	0.0	1.46521	1.24805	
785.0	0.0	1.46265	1.25812	
786.0	0.0	1.46411	1.27258	
787.0	0.0	1.46063	1.28064	
788.0	0.0	1.46155	1.29327	
789.0	0.0	1.45752	1.29456	
790.0	0.0	1.45752	1.30682	
791.0	0.0	1.45276	1.31195	
792.0	0.0	1.45312	1.3233	
793.0	0.0	1.44836	1.32422	
794.0	0.0	1.44763	1.33626	
795.0	0.0	1.44214	1.3385	
796.0	0.0	1.44214	1.34692	
797.0	0.0	1.43884	1.34363	
798.0	0.0	1.43958	1.35297	
799.0	0.0	1.43445	1.35965	
800.0	0.0	1.43518	1.3667	
801.0	0.0	1.43042	1.36761	
802.0	0.0	1.43115	1.37402	
803.0	0.0	1.42749	1.37073	
804.0	0.0	1.4306	1.3775	
805.0	0.0	1.42639	1.37421	
806.0	0.0	1.42621	1.36743	
807.0	0.0	1.42017	1.35864	
808.0	0.0	1.41943	1.36121	
809.0	0.0	1.41284	1.34894	
810.0	0.0	1.40918	1.33667	
811.0	0.0	1.39856	1.31049	
812.0	0.0	1.39014	1.28192	
813.0	0.0	1.37476	1.25061	
814.0	0.0	1.36414	1.21509	
815.0	0.0	1.34619	1.17041	
816.0	0.0	1.33667	1.13452	
817.0	0.0	1.32129	1.09387	
818.0	0.0	1.31323	1.05542	
819.0	0.0	1.30005	1.01807	
820.0	0.0	1.29272	0.97815	
821.0	0.0	1.27917	0.92944	
822.0	0.0	1.2691	0.88403	
823.0	0.0	1.25024	0.8324	
824.0	0.0	1.2334	0.78548	
825.0	0.0	1.21143	0.73425	
826.0	0.0	1.19385	0.68811	
827.0	0.0	1.17297	0.63977	
828.0	0.0	1.15723	0.59711	
829.0	0.0	1.13818	0.54932	
830.0	0.0	1.12463	0.49878	
831.0	0.0	1.10632	0.44403	
832.0	0.0	1.09204	0.39844	
833.0	0.0	1.07336	0.35687	
834.0	0.0	1.06055	0.30414	
835.0	0.0	1.04517	0.26276	
836.0	0.0	1.03601	0.22174	
837.0	0.0	1.02667	0.17175	
838.0	0.0	1.02283	0.1322	
839.0	0.0	1.01147	0.09778	
840.0	0.0	1.00635	0.06592	
841.0	0.0	0.99628	0.02893	
842.0	0.0	0.99426	-0.00513	
843.0	0.0	0.98694	-0.02252	
844.0	0.0	0.98804	-0.04523	
845.0	0.0	0.98584	-0.07306	
846.0	0.0	0.98767	-0.0813	
847.0	0.0	0.98511	-0.09247	
848.0	0.0	0.98694	-0.1073	
849.0	0.0	0.98364	-0.11572	
850.0	0.0	0.98676	-0.11938	
851.0	0.0	0.98529	-0.12305	
852.0	0.0	0.98914	-0.11975	
853.0	0.0	0.98969	-0.11572	
854.0	0.0	0.995	-0.11572	
855.0	0.0	0.99573	-0.09979	
856.0	0.0	1.00232	-0.08624	
857.0	0.0	1.00342	-0.07471	
858.0	0.0	1.01001	-0.05127	
859.0	0.0	1.00873	-0.03607	
860.0	0.0	1.01404	-0.02124	
861.0	0.0	1.01331	-0.01666	
862.0	0.0	1.01733	0.02252	
863.0	0.0	1.0166	0.03058	
864.0	0.0	1.02026	0.04541	
865.0	0.0	1.01953	0.06592	
866.0	0.0	1.02393	0.0835	
867.0	0.0	1.02136	0.08606	
868.0	0.0	1.02466	0.10144	
869.0	0.0	1.02136	0.09375	
870.0	0.0	1.02246	0.11165	
871.0	0.0	1.01843	0.11261	
872.0	0.0	1.02026	0.10309	
873.0	0.0	1.0177	0.10107	
874.0	0.0	1.02026	0.11536	
875.0	0.0	1.0188	0.10748	
876.0	0.0	1.021	0.1225	
877.0	0.0	1.01971	0.11938	
878.0	0.0	1.02026	0.13953	
879.0	0.0	1.0166	0.12964	
880.0	0.0	1.0188	0.14685	
881.0	0.0	1.01532	0.13916	
882.0	0.0	1.01697	0.14227	
883.0	0.0	1.01331	0.12909	
884.0	0.0	1.01477	0.13092	
885.0	0.0	1.01221	0.13879	
886.0	0.0	1.01477	0.1311	
887.0	0.0	1.01331	0.12524	
888.0	0.0	1.0166	0.12653	
889.0	0.0	1.01385	0.117	
890.0	0.0	1.01514	0.1225	
891.0	0.0	1.01074	0.10437	
892.0	0.0	1.01147	0.10675	
893.0	0.0	1.00745	0.10785	
894.0	0.0	1.00928	0.09924	
895.0	0.0	1.00562	0.0932	
896.0	0.0	1.00745	0.08917	
897.0	0.0	1.00488	0.07599	
898.0	0.0	1.00726	0.07819	
899.0	0.0	1.00543	0.07086	
900.0	0.0	1.00854	0.07031	
901.0	0.0	1.00598	0.07416	
902.0	0.0	1.00781	0.07581	
903.0	0.0	1.00378	0.06812	
904.0	0.0	1.00635	0.0769	
905.0	0.0	1.00415	0.07654	
906.0	0.0	1.00635	0.07983	
907.0	0.0	1.00287	0.0835	
908.0	0.0	1.00415	0.09576	
909.0	0.0	0.99902	0.09888	
910.0	0.0	1.00122	0.10217	
911.0	0.0	0.99866	0.09467	
912.0	0.0	1.00159	0.10565	
913.0	0.0	0.99756	0.09467	
914.0	0.0	0.99866	0.09668	
915.0	0.0	0.99609	0.09668	
916.0	0.0	0.99976	0.11224	
917.0	0.0	1.00012	0.10913	
918.0	0.0	1.00708	0.11426	
919.0	0.0	1.01038	0.11554	
920.0	0.0	1.0177	0.11938	
921.0	0.0	1.01953	0.12982	
922.0	0.0	1.02393	0.13568	
923.0	0.0	1.02319	0.14081	
924.0	0.0	1.02832	0.15363	
925.0	0.0	1.02832	0.15729	
926.0	0.0	1.03271	0.16736	
927.0	0.0	1.03198	0.17065	
928.0	0.0	1.03711	0.17908	
929.0	0.0	1.03674	0.18201	
930.0	0.0	1.04022	0.19409	
931.0	0.0	1.03821	0.18677	
932.0	0.0	1.03931	0.2038	
933.0	0.0	1.03711	0.20892	
934.0	0.0	1.03857	0.22137	
935.0	0.0	1.03345	0.2124	
936.0	0.0	1.03418	0.23465	
937.0	0.0	1.02924	0.23035	
938.0	0.0	1.02942	0.23969	
939.0	0.0	1.02393	0.24051	
940.0	0.0	1.02393	0.2428	
941.0	0.0	1.01953	0.2525	
942.0	0.0	1.01953	0.26202	
943.0	0.0	1.01257	0.27466	
944.0	0.0	1.00946	0.27832	
945.0	0.0	1.00122	0.28198	
946.0	0.0	0.99829	0.28821	
947.0	0.0	0.99023	0.28766	
948.0	0.0	0.9884	0.30084	
949.0	0.0	0.98145	0.30048	
950.0	0.0	0.98035	0.31659	
951.0	0.0	0.97375	0.32007	
952.0	0.0	0.97009	0.33069	
953.0	0.0	0.96313	0.33655	
954.0	0.0	0.95947	0.34167	
955.0	0.0	0.95105	0.34351	
956.0	0.0	0.94702	0.35925	
957.0	0.0	0.94006	0.3598	
958.0	0.0	0.93787	0.36731	
959.0	0.0	0.93182	0.36346	
960.0	0.0	0.93127	0.36932	
961.0	0.0	0.92542	0.37958	
962.0	0.0	0.92542	0.38782	
963.0	0.0	0.91992	0.38672	
964.0	0.0	0.91992	0.39716	
965.0	0.0	0.91296	0.39368	
966.0	0.0	0.9126	0.4021	
967.0	0.0	0.90527	0.39606	
968.0	0.0	0.90454	0.39935	
969.0	0.0	0.89832	0.39551	
970.0	0.0	0.89795	0.40045	
971.0	0.0	0.89355	0.40521	
972.0	0.0	0.89429	0.41107	
973.0	0.0	0.88989	0.40924	
974.0	0.0	0.89026	0.41748	
975.0	0.0	0.88477	0.41913	
976.0	0.0	0.88477	0.43103	
977.0	0.0	0.87946	0.43726	
978.0	0.0	0.87964	0.44559	
979.0	0.0	0.87341	0.45236	
980.0	0.0	0.87378	0.45923	
981.0	0.0	0.86865	0.46454	
982.0	0.0	0.86993	0.47552	
983.0	0.0	0.86572	0.48212	
984.0	0.0	0.86755	0.49677	
985.0	0.0	0.86353	0.50684	
986.0	0.0	0.86536	0.5257	
987.0	0.0	0.86353	0.5376	
988.0	0.0	0.86847	0.55994	
989.0	0.0	0.86792	0.57495	
990.0	0.0	0.87085	0.60022	
991.0	0.0	0.86902	0.62201	
992.0	0.0	0.87158	0.64398	
993.0	0.0	0.87048	0.66998	
994.0	0.0	0.87451	0.6958	
995.0	0.0	0.87634	0.71448	
996.0	0.0	0.8844	0.74689	
997.0	0.0	0.88806	0.76904	
998.0	0.0	0.89648	0.79614	
999.0	0.0	0.90051	0.82727	
1000.0	0.0	0.9082	0.8551	
1001.0	0.0	0.91187	0.87616	
1002.0	0.0	0.91992	0.90509	
1003.0	0.0	0.92505	0.93127	
1004.0	0.0	0.9353	0.96423	
1005.0	0.0	0.94116	0.9906	
1006.0	0.0	0.95142	1.02081	
1007.0	0.0	0.95673	1.04169	
1008.0	0.0	0.96625	1.0686	
1009.0	0.0	0.97046	1.08801	
1010.0	0.0	0.97852	1.11237	
1011.0	0.0	0.98364	1.12738	
1012.0	0.0	0.9939	1.14876	
1013.0	0.0	0.99884	1.16418	
1014.0	0.0	1.01001	1.17957	
1015.0	0.0	1.01587	1.18359	
1016.0	0.0	1.02704	1.21417	
1017.0	0.0	1.03308	1.21317	
1018.0	0.0	1.04535	1.23743	
1019.0	0.0	1.05322	1.24512	
1020.0	0.0	1.06567	1.26306	
1021.0	0.0	1.07373	1.27588	
1022.0	0.0	1.08765	1.28613	
1023.0	0.0	1.0968	1.29346	
1024.0	0.0	1.11072	1.30573	
1025.0	0.0	1.11987	1.3125	
1026.0	0.0	1.13416	1.3233	
1027.0	0.0	1.14221	1.32202	
1028.0	0.0	1.15466	1.33246	
1029.0	0.0	1.16125	1.33209	
1030.0	0.0	1.17224	1.33813	
1031.0	0.0	1.17737	1.33099	
1032.0	0.0	1.18542	1.33099	
1033.0	0.0	1.18872	1.31342	
1034.0	0.0	1.19531	1.3103	
1035.0	0.0	1.19641	1.30005	
1036.0	0.0	1.2019	1.29602	
1037.0	0.0	1.20264	1.28613	
1038.0	0.0	1.20667	1.28851	
1039.0	0.0	1.20483	1.28339	
1040.0	0.0	1.20923	1.28906	
1041.0	0.0	1.20703	1.27698	
1042.0	0.0	1.20941	1.28247	
1043.0	0.0	1.2074	1.29108	
1044.0	0.0	1.20959	1.29071	
1045.0	0.0	1.20776	1.30078	
1046.0	0.0	1.20923	1.30042	
1047.0	0.0	1.20557	1.3006	
1048.0	0.0	1.20923	1.30756	
1049.0	0.0	1.20703	1.30188	
1050.0	0.0	1.20923	1.30536	
1051.0	0.0	1.20557	1.30298	
1052.0	0.0	1.2074	1.30792	
1053.0	0.0	1.20264	1.30316	
1054.0	0.0	1.20447	1.3125	
1055.0	0.0	1.20117	1.30975	
1056.0	0.0	1.2041	1.30829	
1057.0	0.0	1.20227	1.3136	
1058.0	0.0	1.20612	1.3103	
1059.0	0.0	1.20447	1.30573	
1060.0	0.0	1.20813	1.30591	
1061.0	0.0	1.20667	1.30042	
1062.0	0.0	1.21033	1.30243	
1063.0	0.0	1.20593	1.29437	
1064.0	0.0	1.2052	1.2951	
1065.0	0.0	1.19714	1.29199	
1066.0	0.0	1.19275	1.28815	
1067.0	0.0	1.18396	1.27661	
1068.0	0.0	1.1814	1.2561	
1069.0	0.0	1.17645	1.24365	
1070.0	0.0	1.17883	1.22351	
1071.0	0.0	1.1759	1.20245	
1072.0	0.0	1.17554	1.18964	
1073.0	0.0	1.16895	1.16473	
1074.0	0.0	1.16711	1.16473	
1075.0	0.0	1.15869	1.15448	
1076.0	0.0	1.1543	1.14606	
1077.0	0.0	1.14404	1.12527	
1078.0	0.0	1.13965	1.11493	
1079.0	0.0	1.13123	1.09039	
1080.0	0.0	1.12756	1.0752	
1081.0	0.0	1.12061	1.05212	
1082.0	0.0	1.11841	1.03143	
1083.0	0.0	1.11053	1.00635	
1084.0	0.0	1.10596	0.98254	
1085.0	0.0	1.09497	0.95215	
1086.0	0.0	1.08691	0.92871	
1087.0	0.0	1.07098	0.89795	
1088.0	0.0	1.05798	0.87378	
1089.0	0.0	1.04004	0.8476	
1090.0	0.0	1.02429	0.83167	
1091.0	0.0	1.00305	0.80914	
1092.0	0.0	0.98547	0.78534	
1093.0	0.0	0.96167	0.76447	
1094.0	0.0	0.94116	0.74213	
1095.0	0.0	0.91534	0.71851	
1096.0	0.0	0.89136	0.70074	
1097.0	0.0	0.8606	0.67703	
1098.0	0.0	0.83148	0.6665	
1099.0	0.0	0.79541	0.64929	
1100.0	0.0	0.76025	0.63538	
1101.0	0.0	0.72015	0.6156	
1102.0	0.0	0.68335	0.60461	
1103.0	0.0	0.64417	0.58795	
1104.0	0.0	0.61011	0.57495	
1105.0	0.0	0.57349	0.55719	
1106.0	0.0	0.54291	0.53934	
1107.0	0.0	0.51013	0.53009	
1108.0	0.0	0.4834	0.5159	
1109.0	0.0	0.45209	0.4964	
1110.0	0.0	0.42554	0.48065	
1111.0	0.0	0.39551	0.46907	
1112.0	0.0	0.37061	0.45996	
1113.0	0.0	0.34314	0.43945	
1114.0	0.0	0.31989	0.4248	
1115.0	0.0	0.29205	0.41364	
1116.0	0.0	0.26807	0.40302	
1117.0	0.0	0.23877	0.38544	
1118.0	0.0	0.21277	0.37354	
1119.0	0.0	0.18475	0.37354	
1120.0	0.0	0.16022	0.36823	
1121.0	0.0	0.13293	0.35651	
1122.0	0.0	0.10913	0.34589	
1123.0	0.0	0.08203	0.3349	
1124.0	0.0	0.05804	0.32977	
1125.0	0.0	0.03131	0.31183	
1126.0	0.0	0.01099	0.31673	
1127.0	0.0	-0.01135	0.30212	
1128.0	0.0	-0.0271	0.28949	
1129.0	0.0	-0.04578	0.27429	
1130.0	0.0	-0.0575	0.25809	
1131.0	0.0	-0.07214	0.23529	
1132.0	0.0	-0.08093	0.23621	
1133.0	0.0	-0.0932	0.21149	
1134.0	0.0	-0.09906	0.2124	
1135.0	0.0	-0.10785	0.19647	
1136.0	0.0	-0.11206	0.19336	
1137.0	0.0	-0.11865	0.18109	
1138.0	0.0	-0.11755	0.1767	
1139.0	0.0	-0.12048	0.16827	
1140.0	0.0	-0.11865	0.16864	
1141.0	0.0	-0.12396	0.16132	
1142.0	0.0	-0.12415	0.15619	
1143.0	0.0	-0.12927	0.14594	
1144.0	0.0	-0.12817	0.12982	
1145.0	0.0	-0.13147	0.12158	
1146.0	0.0	-0.12854	0.12195	
1147.0	0.0	-0.13065	0.10748	
1148.0	0.0	-0.12708	0.10675	
1149.0	0.0	-0.13019	0.09631	
1150.0	0.0	-0.12982	0.09521	
1151.0	0.0	-0.13605	0.09686	
1152.0	0.0	-0.13934	0.09448	
1153.0	0.0	-0.15143	0.0813	
1154.0	0.0	-0.16095	0.078	
1155.0	0.0	-0.17651	0.06757	
1156.0	0.0	-0.19098	0.05988	
1157.0	0.0	-0.21167	0.03662	
1158.0	0.0	-0.22852	0.02509	
1159.0	0.0	-0.24994	-0.00348	
1160.0	0.0	-0.2688	-0.02344	
1161.0	0.0	-0.29187	-0.05859	
1162.0	0.0	-0.30707	-0.08276	
1163.0	0.0	-0.32007	-0.10858	
1164.0	0.0	-0.32391	-0.1203	
1165.0	0.0	-0.32941	-0.13367	
1166.0	0.0	-0.33124	-0.13733	
1167.0	0.0	-0.34131	-0.12891	
1168.0	0.0	-0.35156	-0.12689	
1169.0	0.0	-0.37061	-0.1236	
1170.0	0.0	-0.38928	-0.117	
1171.0	0.0	-0.41519	-0.11691	
1172.0	0.0	-0.43726	-0.11536	
1173.0	0.0	-0.46234	-0.10968	
1174.0	0.0	-0.48212	-0.08917	
1175.0	0.0	-0.5072	-0.06683	
1176.0	0.0	-0.53064	-0.03351	
1177.0	0.0	-0.5592	-0.01447	
1178.0	0.0	-0.58484	-0.00879	
1179.0	0.0	-0.61615	0.00092	
1180.0	0.0	-0.64435	0.02692	
1181.0	0.0	-0.67603	0.01721	
1182.0	0.0	-0.70605	0.03726	
1183.0	0.0	-0.74194	0.02783	
1184.0	0.0	-0.77545	0.01556	
1185.0	0.0	-0.81436	0.02161	
1186.0	0.0	-0.84979	0.02618	
1187.0	0.0	-0.88541	0.01172	
1188.0	0.0	-0.91718	0.01172	
1189.0	0.0	-0.94899	-0.01465	
1190.0	0.0	-0.9754	-0.01849	
1191.0	0.0	-1.00356	-0.03131	
1192.0	0.0	-1.02502	-0.03735	
1193.0	0.0	-1.04773	-0.04449	
1194.0	0.0	-1.06279	-0.04211	
1195.0	0.0	-1.0806	-0.04926	
1196.0	0.0	-1.09149	-0.04843	
1197.0	0.0	-1.10577	-0.04926	
1198.0	0.0	-1.11328	-0.04852	
1199.0	0.0	-1.12386	-0.05182	
1200.0	0.0	-1.12921	-0.05804	
1201.0	0.0	-1.14185	-0.05054	
1202.0	0.0	-1.15063	-0.03278	
1203.0	0.0	-1.16418	-0.03497	
1204.0	0.0	-1.17096	-0.02765	
1205.0	0.0	-1.18057	-0.03937	
1206.0	0.0	-1.18446	-0.01309	
1207.0	0.0	-1.19385	-0.00989	
1208.0	0.0	-1.19962	-0.01575	
1209.0	0.0	-1.20923	-0.00714	
1210.0	0.0	-1.2112	-0.00366	
1211.0	0.0	-1.21527	-0.02509	
1212.0	0.0	-1.21129	-0.00531	
1213.0	0.0	-1.21033	-0.01355	
1214.0	0.0	-1.20355	0.00165	
1215.0	0.0	-1.20255	-0.01025	
1216.0	0.0	-1.19522	-0.00412	
1217.0	0.0	-1.1933	-0.00568	
1218.0	0.0	-1.18469	0.00092	
1219.0	0.0	-1.17984	-0.01208	
1220.0	0.0	-1.1678	0.00348	
1221.0	0.0	-1.16029	-0.00897	
1222.0	0.0	-1.14523	-0.00677	
1223.0	0.0	-1.1348	0.00696	
1224.0	0.0	-1.11905	0.00403	
1225.0	0.0	-1.10866	0.00183	
1226.0	0.0	-1.09378	0.00018	
1227.0	0.0	-1.08344	-0.01593	
1228.0	0.0	-1.06613	-0.01556	
1229.0	0.0	-1.05469	-0.00952	
1230.0	0.0	-1.0372	-0.01685	
1231.0	0.0	-1.02383	-0.01318	
1232.0	0.0	-1.0036	-0.01749	
1233.0	0.0	-0.98694	-0.00201	
1234.0	0.0	-0.9635	0.01593	
1235.0	0.0	-0.94482	0.02069	
1236.0	0.0	-0.91974	0.03516	
1237.0	0.0	-0.89868	0.03085	
1238.0	0.0	-0.87158	0.05072	
1239.0	0.0	-0.84833	0.05676	
1240.0	0.0	-0.82178	0.06335	
1241.0	0.0	-0.80182	0.06628	
1242.0	0.0	-0.77985	0.06537	
1243.0	0.0	-0.76465	0.06354	
1244.0	0.0	-0.74551	0.08542	
1245.0	0.0	-0.73169	0.07581	
1246.0	0.0	-0.71246	0.08972	
1247.0	0.0	-0.69727	0.09027	
1248.0	0.0	-0.67621	0.09741	
1249.0	0.0	-0.65945	0.08368	
1250.0	0.0	-0.63794	0.08899	
1251.0	0.0	-0.61945	0.08276	
1252.0	0.0	-0.59436	0.07063	
1253.0	0.0	-0.57257	0.05933	
1254.0	0.0	-0.54565	0.05713	
1255.0	0.0	-0.5235	0.03937	
1256.0	0.0	-0.49942	0.0423	
1257.0	0.0	-0.48083	0.03333	
1258.0	0.0	-0.45584	0.03662	
1259.0	0.0	-0.43323	0.03204	
1260.0	0.0	-0.4032	0.03369	
1261.0	0.0	-0.37463	0.02509	
1262.0	0.0	-0.34039	0.02124	
1263.0	0.0	-0.31036	0.02014	
1264.0	0.0	-0.27869	0.01959	
1265.0	0.0	-0.25195	0.01062	
1266.0	0.0	-0.22302	0.0249	
1267.0	0.0	-0.19666	0.02802	
1268.0	0.0	-0.16223	0.03259	
1269.0	0.0	-0.12836	0.02673	
1270.0	0.0	-0.08936	0.03113	
1271.0	0.0	-0.05127	0.02179	
1272.0	0.0	-0.00879	0.0304	
1273.0	0.0	0.02802	0.03937	
1274.0	0.0	0.0661	0.05219	
1275.0	0.0	0.09998	0.05292	
1276.0	0.0	0.13971	0.0553	
1277.0	0.0	0.17596	0.05228	
1278.0	0.0	0.21716	0.05878	
1279.0	0.0	0.25525	0.0564	
1280.0	0.0	0.29608	0.06189	
1281.0	0.0	0.33179	0.06024	
1282.0	0.0	0.37097	0.06189	
1283.0	0.0	0.40723	0.05731	
1284.0	0.0	0.44623	0.05878	
1285.0	0.0	0.479	0.05768	
1286.0	0.0	0.51343	0.05896	
1287.0	0.0	0.54272	0.05896	
1288.0	0.0	0.57568	0.06921	
1289.0	0.0	0.6059	0.0683	
1290.0	0.0	0.64087	0.06793	
1291.0	0.0	0.67273	0.05338	
1292.0	0.0	0.70752	0.0542	
1293.0	0.0	0.73608	0.03973	
1294.0	0.0	0.7663	0.04266	
1295.0	0.0	0.79285	0.02948	
1296.0	0.0	0.82397	0.02527	
1297.0	0.0	0.85107	0.01849	
1298.0	0.0	0.88422	0.02362	
1299.0	0.0	0.91223	0.00659	
1300.0	0.0	0.94373	0.0119	
1301.0	0.0	0.97119	-0.00879	
1302.0	0.0	1.00012	0.00146	
1303.0	0.0	1.02466	-0.0108	
1304.0	0.0	1.04974	-0.01208	
1305.0	0.0	1.07245	-0.01868	
1306.0	0.0	1.09607	-0.00073	
1307.0	0.0	1.11731	-0.01227	
1308.0	0.0	1.13818	-0.01886	
1309.0	0.0	1.15613	-0.0271	
1310.0	0.0	1.1748	-0.02563	
1311.0	0.0	1.18872	-0.02664	
1312.0	0.0	1.2052	-0.02875	
1313.0	0.0	1.21948	-0.04541	
1314.0	0.0	1.23486	-0.03021	
1315.0	0.0	1.24841	-0.03955	
1316.0	0.0	1.26123	-0.03461	
1317.0	0.0	1.27313	-0.06152	
1318.0	0.0	1.28467	-0.04523	
1319.0	0.0	1.29126	-0.06354	
1320.0	0.0	1.30225	-0.07031	
1321.0	0.0	1.3092	-0.07416	
1322.0	0.0	1.31854	-0.05988	
1323.0	0.0	1.32642	-0.07315	
1324.0	0.0	1.33521	-0.06683	
1325.0	0.0	1.34326	-0.08551	
1326.0	0.0	1.35168	-0.07654	
1327.0	0.0	1.35718	-0.07819	
1328.0	0.0	1.36414	-0.06976	
1329.0	0.0	1.36816	-0.06775	
1330.0	0.0	1.37476	-0.05804	
1331.0	0.0	1.37878	-0.05786	
1332.0	0.0	1.38611	-0.05182	
1333.0	0.0	1.38794	-0.06299	
1334.0	0.0	1.39307	-0.0802	
1335.0	0.0	1.39453	-0.06866	
1336.0	0.0	1.40039	-0.06262	
1337.0	0.0	1.40186	-0.05731	
1338.0	0.0	1.40771	-0.04303	
1339.0	0.0	1.41138	-0.03424	
1340.0	0.0	1.41504	-0.02911	
1341.0	0.0	1.41431	-0.01685	
1342.0	0.0	1.4187	-0.00018	
1343.0	0.0	1.42017	-0.00238	
1344.0	0.0	1.42383	-0.00238	
1345.0	0.0	1.42236	0.00018	
1346.0	0.0	1.42603	0.01904	
1347.0	0.0	1.42493	0.03076	
1348.0	0.0	1.42859	0.0412	
1349.0	0.0	1.42859	0.05695	
1350.0	0.0	1.43188	0.06372	
1351.0	0.0	1.42859	0.07141	
1352.0	0.0	1.43115	0.09778	
1353.0	0.0	1.42932	0.12085	
1354.0	0.0	1.43335	0.14923	
1355.0	0.0	1.43188	0.15985	
1356.0	0.0	1.43628	0.20819	
1357.0	0.0	1.43628	0.21497	
1358.0	0.0	1.43921	0.21332	
1359.0	0.0	1.43628	0.23071	
1360.0	0.0	1.43793	0.23035	
1361.0	0.0	1.43335	0.23969	
1362.0	0.0	1.43591	0.25397	
1363.0	0.0	1.43152	0.27429	
1364.0	0.0	1.43481	0.2915	
1365.0	0.0	1.43298	0.30579	
1366.0	0.0	1.43665	0.32318	
1367.0	0.0	1.43042	0.33783	
1368.0	0.0	1.42639	0.37701	
1369.0	0.0	1.41577	0.41656	
1370.0	0.0	1.41028	0.44824	
1371.0	0.0	1.40039	0.48669	
1372.0	0.0	1.39709	0.53888	
1373.0	0.0	1.3916	0.56158	
1374.0	0.0	1.39398	0.59729	
1375.0	0.0	1.39014	0.61578	
1376.0	0.0	1.39087	0.63849	
1377.0	0.0	1.38208	0.65607	
1378.0	0.0	1.37769	0.68362	
1379.0	0.0	1.37622	0.71136	
1380.0	0.0	1.38354	0.7359	
1381.0	0.0	1.38794	0.76007	
1382.0	0.0	1.39526	0.78333	
1383.0	0.0	1.39453	0.80823	
1384.0	0.0	1.39746	0.83112	
1385.0	0.0	1.39105	0.85107	
1386.0	0.0	1.38574	0.87268	
1387.0	0.0	1.37219	0.89026	
1388.0	0.0	1.36157	0.91077	
1389.0	0.0	1.34619	0.92542	
1390.0	0.0	1.33685	0.94318	
1391.0	0.0	1.32422	0.95087	
1392.0	0.0	1.31726	0.96533	
1393.0	0.0	1.30481	0.96954	
1394.0	0.0	1.29858	0.9776	
1395.0	0.0	1.28796	0.9809	
1396.0	0.0	1.2832	0.98657	
1397.0	0.0	1.27734	0.98657	
1398.0	0.0	1.27625	0.99097	
1399.0	0.0	1.27039	0.98676	
1400.0	0.0	1.27039	0.99261	
1401.0	0.0	1.26562	0.9906	
1402.0	0.0	1.26672	0.99261	
1403.0	0.0	1.26416	0.98657	
1404.0	0.0	1.26855	0.98804	
1405.0	0.0	1.26562	0.98877	
1406.0	0.0	1.26672	0.99042	
1407.0	0.0	1.2627	0.9906	
1408.0	0.0	1.26489	0.99005	
1409.0	0.0	1.26288	0.98419	
1410.0	0.0	1.26599	0.98804	
1411.0	0.0	1.26416	0.98181	
1412.0	0.0	1.26819	0.98529	
1413.0	0.0	1.26709	0.9906	
1414.0	0.0	1.27185	1.00049	
1415.0	0.0	1.27515	1.00726	
1416.0	0.0	1.28723	1.02338	
1417.0	0.0	1.29492	1.03418	
1418.0	0.0	1.30957	1.06018	
1419.0	0.0	1.32056	1.08032	
1420.0	0.0	1.33374	1.10687	
1421.0	0.0	1.3418	1.12335	
1422.0	0.0	1.35388	1.14972	
1423.0	0.0	1.36304	1.17096	
1424.0	0.0	1.37256	1.18927	
1425.0	0.0	1.38135	1.20209	
1426.0	0.0	1.39032	1.21985	
1427.0	0.0	1.39819	1.23413	
1428.0	0.0	1.40515	1.24246	
1429.0	0.0	1.41138	1.25775	
1430.0	0.0	1.41797	1.2724	
1431.0	0.0	1.4231	1.27716	
1432.0	0.0	1.42822	1.28137	
1433.0	0.0	1.43042	1.28925	
1434.0	0.0	1.43555	1.29785	
1435.0	0.0	1.43793	1.29858	
1436.0	0.0	1.44287	1.30957	
1437.0	0.0	1.44507	1.31927	
1438.0	0.0	1.44727	1.33035	
1439.0	0.0	1.44653	1.33264	
1440.0	0.0	1.4491	1.33795	
1441.0	0.0	1.4458	1.33246	
1442.0	0.0	1.44727	1.34436	
1443.0	0.0	1.4436	1.34436	
1444.0	0.0	1.44653	1.34793	
1445.0	0.0	1.44653	1.34473	
1446.0	0.0	1.44873	1.35187	
1447.0	0.0	1.44727	1.34509	
1448.0	0.0	1.4502	1.34793	
1449.0	0.0	1.448	1.34216	
1450.0	0.0	1.45056	1.34088	
1451.0	0.0	1.4491	1.33081	
1452.0	0.0	1.45166	1.33557	
1453.0	0.0	1.44946	1.33099	
1454.0	0.0	1.45166	1.33154	
1455.0	0.0	1.44836	1.31964	
1456.0	0.0	1.45056	1.32532	
1457.0	0.0	1.44617	1.31891	
1458.0	0.0	1.44653	1.31543	
1459.0	0.0	1.44434	1.31689	
1460.0	0.0	1.44653	1.31763	
1461.0	0.0	1.44507	1.30774	
1462.0	0.0	1.44727	1.31268	
1463.0	0.0	1.4458	1.30334	
1464.0	0.0	1.448	1.3011	
1465.0	0.0	1.44653	1.29419	
1466.0	0.0	1.4491	1.29227	
1467.0	0.0	1.45093	1.28503	
1468.0	0.0	1.45349	1.28247	
1469.0	0.0	1.45605	1.27441	
1470.0	0.0	1.45752	1.26801	
1471.0	0.0	1.45166	1.26526	
1472.0	0.0	1.45093	1.27277	
1473.0	0.0	1.44653	1.26965	
1474.0	0.0	1.44946	1.27148	
1475.0	0.0	1.448	1.26782	
1476.0	0.0	1.45093	1.26709	
1477.0	0.0	1.448	1.2583	
1478.0	0.0	1.44946	1.25317	
1479.0	0.0	1.44653	1.25208	
1480.0	0.0	1.4469	1.25775	
1481.0	0.0	1.4436	1.25793	
1482.0	0.0	1.44653	1.26489	
1483.0	0.0	1.44434	1.26416	
1484.0	0.0	1.4458	1.27094	
1485.0	0.0	1.44287	1.2746	
1486.0	0.0	1.44507	1.28046	
1487.0	0.0	1.44141	1.27881	
1488.0	0.0	1.44141	1.2821	
1489.0	0.0	1.43628	1.28558	
1490.0	0.0	1.43518	1.29199	
1491.0	0.0	1.42749	1.29236	
1492.0	0.0	1.42456	1.2973	
1493.0	0.0	1.41577	1.29803	
1494.0	0.0	1.41174	1.3006	
1495.0	0.0	1.40149	1.30243	
1496.0	0.0	1.39526	1.29822	
1497.0	0.0	1.38428	1.29584	
1498.0	0.0	1.37769	1.29895	
1499.0	0.0	1.36633	1.29327	
1500.0	0.0	1.36011	1.29053	
1501.0	0.0	1.35077	1.28485	
1502.0	0.0	1.34656	1.28906	
1503.0	0.0	1.33978	1.27972	
1504.0	0.0	1.3396	1.27679	
1505.0	0.0	1.33557	1.26672	
1506.0	0.0	1.3374	1.26508	
1507.0	0.0	1.33813	1.25262	
1508.0	0.0	1.34363	1.24988	
1509.0	0.0	1.34473	1.23651	
1510.0	0.0	1.35242	1.2226	
1511.0	0.0	1.35498	1.20996	
1512.0	0.0	1.36084	1.21106	
1513.0	0.0	1.3623	1.20081	
1514.0	0.0	1.36743	1.19824	
1515.0	0.0	1.3667	1.19128	
1516.0	0.0	1.37146	1.18652	
1517.0	0.0	1.37109	1.18634	
1518.0	0.0	1.37512	1.18817	
1519.0	0.0	1.37402	1.18341	
1520.0	0.0	1.37585	1.18304	
1521.0	0.0	1.37256	1.17865	
1522.0	0.0	1.37146	1.18396	
1523.0	0.0	1.36304	1.18561	
1524.0	0.0	1.35809	1.19019	
1525.0	0.0	1.34766	1.19055	
1526.0	0.0	1.34033	1.19421	
1527.0	0.0	1.32825	1.19769	
1528.0	0.0	1.32129	1.20135	
1529.0	0.0	1.3092	1.19165	
1530.0	0.0	1.30115	1.19861	
1531.0	0.0	1.28979	1.19147	
1532.0	0.0	1.28247	1.19183	
1533.0	0.0	1.27148	1.17902	
1534.0	0.0	1.26453	1.16602	
1535.0	0.0	1.25464	1.15356	
1536.0	0.0	1.25024	1.14716	
1537.0	0.0	1.24182	1.13837	
1538.0	0.0	1.23889	1.1261	
1539.0	0.0	1.23303	1.10468	
1540.0	0.0	1.22754	1.0816	
1541.0	0.0	1.21582	1.05322	
1542.0	0.0	1.20667	1.01532	
1543.0	0.0	1.1911	0.96167	
1544.0	0.0	1.18066	0.8996	
1545.0	0.0	1.16455	0.82397	
1546.0	0.0	1.1554	0.74799	
1547.0	0.0	1.14111	0.672	
1548.0	0.0	1.13159	0.59912	
1549.0	0.0	1.11328	0.52808	
1550.0	0.0	1.0957	0.46161	
1551.0	0.0	1.07117	0.38928	
1552.0	0.0	1.04938	0.32758	
1553.0	0.0	1.02319	0.25287	
1554.0	0.0	1.00323	0.18182	
1555.0	0.0	0.98035	0.12479	
1556.0	0.0	0.96387	0.05804	
1557.0	0.0	0.94373	-0.0119	
1558.0	0.0	0.92761	-0.06189	
1559.0	0.0	0.90894	-0.11572	
1560.0	0.0	0.89355	-0.16992	
1561.0	0.0	0.87598	-0.2179	
1562.0	0.0	0.86243	-0.26349	
1563.0	0.0	0.84558	-0.29333	
1564.0	0.0	0.83423	-0.33618	
1565.0	0.0	0.81885	-0.36951	
1566.0	0.0	0.80859	-0.39349	
1567.0	0.0	0.79468	-0.43652	
1568.0	0.0	0.78516	-0.452	
1569.0	0.0	0.77417	-0.47864	
1570.0	0.0	0.76758	-0.49713	
1571.0	0.0	0.75677	-0.52734	
1572.0	0.0	0.75146	-0.53915	
1573.0	0.0	0.74341	-0.55133	
1574.0	0.0	0.73901	-0.56429	
1575.0	0.0	0.73279	-0.57294	
1576.0	0.0	0.73242	-0.58447	
1577.0	0.0	0.72876	-0.6048	
1578.0	0.0	0.72949	-0.60928	
1579.0	0.0	0.72729	-0.60828	
1580.0	0.0	0.72839	-0.60535	
1581.0	0.0	0.72546	-0.60709	
1582.0	0.0	0.72675	-0.61633	
1583.0	0.0	0.72253	-0.60745	
1584.0	0.0	0.72327	-0.61377	
1585.0	0.0	0.71887	-0.61276	
1586.0	0.0	0.71924	-0.60768	
1587.0	0.0	0.71466	-0.59711	
1588.0	0.0	0.71448	-0.6026	
1589.0	0.0	0.70917	-0.6059	
1590.0	0.0	0.70862	-0.58887	
1591.0	0.0	0.70312	-0.59958	
1592.0	0.0	0.70184	-0.57953	
1593.0	0.0	0.6958	-0.57788	
1594.0	0.0	0.6947	-0.55829	
1595.0	0.0	0.68848	-0.55701	
1596.0	0.0	0.68701	-0.54163	
1597.0	0.0	0.68115	-0.53741	
1598.0	0.0	0.67896	-0.52917	
1599.0	0.0	0.67163	-0.52277	
1600.0	0.0	0.66943	-0.50427	
1601.0	0.0	0.66284	-0.49594	
1602.0	0.0	0.66138	-0.48944	
1603.0	0.0	0.65552	-0.48683	
1604.0	0.0	0.65515	-0.47974	
1605.0	0.0	0.65076	-0.46577	
1606.0	0.0	0.65057	-0.45923	
1607.0	0.0	0.64636	-0.44257	
1608.0	0.0	0.64673	-0.4292	
1609.0	0.0	0.64307	-0.42462	
1610.0	0.0	0.64801	-0.41876	
1611.0	0.0	0.64783	-0.40393	
1612.0	0.0	0.65039	-0.39423	
1613.0	0.0	0.64856	-0.3772	
1614.0	0.0	0.65186	-0.37335	
1615.0	0.0	0.65277	-0.36676	
1616.0	0.0	0.65991	-0.35742	
1617.0	0.0	0.66357	-0.35239	
1618.0	0.0	0.67236	-0.33197	
1619.0	0.0	0.67676	-0.31238	
1620.0	0.0	0.68427	-0.29114	
1621.0	0.0	0.68628	-0.26422	
1622.0	0.0	0.69214	-0.23712	
1623.0	0.0	0.69287	-0.22101	
1624.0	0.0	0.6991	-0.19171	
1625.0	0.0	0.70129	-0.1734	
1626.0	0.0	0.70935	-0.15179	
1627.0	0.0	0.71265	-0.11975	
1628.0	0.0	0.7207	-0.08936	
1629.0	0.0	0.72253	-0.06244	
1630.0	0.0	0.72949	-0.0304	
1631.0	0.0	0.73169	-0.0108	
1632.0	0.0	0.737	0.0163	
1633.0	0.0	0.73865	0.03827	
1634.0	0.0	0.74414	0.06207	
1635.0	0.0	0.74487	0.09082	
1636.0	0.0	0.74963	0.10181	
1637.0	0.0	0.75073	0.12872	
1638.0	0.0	0.75623	0.15115	
1639.0	0.0	0.75659	0.15582	
1640.0	0.0	0.76135	0.17725	
1641.0	0.0	0.76172	0.18658	
1642.0	0.0	0.76538	0.20782	
1643.0	0.0	0.76337	0.21964	
1644.0	0.0	0.76703	0.22247	
1645.0	0.0	0.76758	0.23346	
1646.0	0.0	0.77161	0.23877	
1647.0	0.0	0.77234	0.24207	
1648.0	0.0	0.7771	0.25012	
1649.0	0.0	0.77783	0.25378	
1650.0	0.0	0.78149	0.2644	
1651.0	0.0	0.78131	0.25781	
1652.0	0.0	0.78589	0.27081	
1653.0	0.0	0.78516	0.26477	
1654.0	0.0	0.78845	0.26953	
1655.0	0.0	0.78516	0.26862	
1656.0	0.0	0.78809	0.27759	
1657.0	0.0	0.78552	0.27759	
1658.0	0.0	0.78735	0.27832	
1659.0	0.0	0.78479	0.2796	
1660.0	0.0	0.78625	0.28766	
1661.0	0.0	0.78424	0.29114	
1662.0	0.0	0.78589	0.30267	
1663.0	0.0	0.78314	0.30377	
1664.0	0.0	0.78442	0.31018	
1665.0	0.0	0.78113	0.31512	
1666.0	0.0	0.78241	0.32483	
1667.0	0.0	0.78003	0.32153	
1668.0	0.0	0.78076	0.32812	
1669.0	0.0	0.77802	0.32996	
1670.0	0.0	0.77875	0.33215	
1671.0	0.0	0.77417	0.33142	
1672.0	0.0	0.7749	0.33472	
1673.0	0.0	0.76941	0.33234	
1674.0	0.0	0.76941	0.3338	
1675.0	0.0	0.76355	0.33435	
1676.0	0.0	0.76245	0.33453	
1677.0	0.0	0.75769	0.33142	
1678.0	0.0	0.75732	0.33636	
1679.0	0.0	0.75366	0.33179	
1680.0	0.0	0.75549	0.33142	
1681.0	0.0	0.75293	0.32739	
1682.0	0.0	0.75403	0.33398	
1683.0	0.0	0.75146	0.32776	
1684.0	0.0	0.75549	0.33398	
1685.0	0.0	0.75604	0.32977	
1686.0	0.0	0.76135	0.33197	
1687.0	0.0	0.76099	0.33508	
1688.0	0.0	0.76538	0.33911	
1689.0	0.0	0.76611	0.34186	
1690.0	0.0	0.77271	0.34863	
1691.0	0.0	0.77637	0.34918	
1692.0	0.0	0.78479	0.35742	
1693.0	0.0	0.78992	0.36072	
1694.0	0.0	0.80054	0.37321	
1695.0	0.0	0.8064	0.37939	
1696.0	0.0	0.81702	0.39661	
1697.0	0.0	0.82526	0.4118	
1698.0	0.0	0.83899	0.43652	
1699.0	0.0	0.85034	0.45813	
1700.0	0.0	0.86865	0.48999	
1701.0	0.0	0.8855	0.52295	
1702.0	0.0	0.90912	0.56232	
1703.0	0.0	0.92798	0.59985	
1704.0	0.0	0.95215	0.64325	
1705.0	0.0	0.97156	0.68207	
1706.0	0.0	0.99463	0.72491	
1707.0	0.0	1.01257	0.7619	
1708.0	0.0	1.03455	0.8042	
1709.0	0.0	1.05029	0.84119	
1710.0	0.0	1.07007	0.87909	
1711.0	0.0	1.08325	0.91022	
1712.0	0.0	1.09863	0.94171	
1713.0	0.0	1.10742	0.96643	
1714.0	0.0	1.11987	0.98804	
1715.0	0.0	1.12738	1.00873	
1716.0	0.0	1.13782	1.03564	
1717.0	0.0	1.14404	1.04919	
1718.0	0.0	1.1543	1.0675	
1719.0	0.0	1.16052	1.07666	
1720.0	0.0	1.17041	1.09016	
1721.0	0.0	1.17627	1.1001	
1722.0	0.0	1.18359	1.11053	
1723.0	0.0	1.18359	1.11237	
1724.0	0.0	1.18652	1.11584	
1725.0	0.0	1.18286	1.10614	
1726.0	0.0	1.18103	1.10962	
1727.0	0.0	1.17261	1.10101	
1728.0	0.0	1.16748	1.09644	
1729.0	0.0	1.1554	1.08545	
1730.0	0.0	1.14624	1.08032	
1731.0	0.0	1.13232	1.05835	
1732.0	0.0	1.11914	1.05286	
1733.0	0.0	1.10046	1.03143	
1734.0	0.0	1.08435	1.02484	
1735.0	0.0	1.06274	1.01147	
1736.0	0.0	1.04443	0.99756	
1737.0	0.0	1.02173	0.9906	
1738.0	0.0	1.00269	0.97961	
1739.0	0.0	0.98145	0.97778	
1740.0	0.0	0.9657	0.97742	
1741.0	0.0	0.94922	0.96121	
1742.0	0.0	0.94116	0.96259	
1743.0	0.0	0.93347	0.94849	
1744.0	0.0	0.9375	0.93347	
1745.0	0.0	0.94519	0.90912	
1746.0	0.0	0.9646	0.88824	
1747.0	0.0	0.9873	0.86334	
1748.0	0.0	1.01331	0.85089	
1749.0	0.0	1.03235	0.84521	
1750.0	0.0	1.05103	0.86224	
1751.0	0.0	1.06421	0.88202	
1752.0	0.0	1.08105	0.90234	
1753.0	0.0	1.09277	0.91278	
1754.0	0.0	1.10779	0.92725	
1755.0	0.0	1.11877	0.94098	
1756.0	0.0	1.13196	0.95105	
1757.0	0.0	1.13965	0.95947	
1758.0	0.0	1.15173	0.96094	
1759.0	0.0	1.15869	0.96735	
1760.0	0.0	1.17004	0.98108	
1761.0	0.0	1.17957	0.98749	
1762.0	0.0	1.19165	1.01093	
1763.0	0.0	1.20154	1.02356	
1764.0	0.0	1.21509	1.03381	
1765.0	0.0	1.22534	1.0448	
1766.0	0.0	1.24036	1.04791	
1767.0	0.0	1.25098	1.0426	
1768.0	0.0	1.26672	1.0437	
1769.0	0.0	1.27881	1.04279	
1770.0	0.0	1.29236	1.04626	
1771.0	0.0	1.30334	1.05139	
1772.0	0.0	1.3158	1.06915	
1773.0	0.0	1.32458	1.07794	
1774.0	0.0	1.33484	1.08875	
1775.0	0.0	1.34106	1.09662	
1776.0	0.0	1.35059	1.10376	
1777.0	0.0	1.35498	1.10614	
1778.0	0.0	1.3623	1.11237	
1779.0	0.0	1.36377	1.11292	
1780.0	0.0	1.36743	1.11877	
1781.0	0.0	1.3656	1.11328	
1782.0	0.0	1.36743	1.11859	
1783.0	0.0	1.3623	1.10779	
1784.0	0.0	1.36194	1.10175	
1785.0	0.0	1.35278	1.08838	
1786.0	0.0	1.34399	1.07721	
1787.0	0.0	1.32806	1.05286	
1788.0	0.0	1.3158	1.04626	
1789.0	0.0	1.29785	1.034	
1790.0	0.0	1.28467	1.0329	
1791.0	0.0	1.26617	1.03157	
1792.0	0.0	1.25555	1.03967	
1793.0	0.0	1.24072	1.04297	
1794.0	0.0	1.2312	1.05322	
1795.0	0.0	1.2182	1.05725	
1796.0	0.0	1.20959	1.06036	
1797.0	0.0	1.19897	1.05249	
1798.0	0.0	1.19165	1.047	
1799.0	0.0	1.18103	1.04681	
1800.0	0.0	1.17535	1.04736	
1801.0	0.0	1.16602	1.05501	
1802.0	0.0	1.16199	1.06274	
1803.0	0.0	1.1543	1.06659	
1804.0	0.0	1.15247	1.07739	
1805.0	0.0	1.1488	1.07758	
1806.0	0.0	1.15027	1.09497	
1807.0	0.0	1.14807	1.10596	
1808.0	0.0	1.15173	1.11328	
1809.0	0.0	1.15137	1.11603	
1810.0	0.0	1.15741	1.12317	
1811.0	0.0	1.15759	1.12335	
1812.0	0.0	1.16327	1.12811	
1813.0	0.0	1.16418	1.13324	
1814.0	0.0	1.16821	1.14075	
1815.0	0.0	1.16858	1.14729	
1816.0	0.0	1.17407	1.15649	
1817.0	0.0	1.17407	1.15411	
1818.0	0.0	1.17737	1.15796	
1819.0	0.0	1.17554	1.1554	
1820.0	0.0	1.17645	1.16071	
1821.0	0.0	1.17334	1.15869	
1822.0	0.0	1.17535	1.15796	
1823.0	0.0	1.17261	1.14752	
1824.0	0.0	1.1748	1.14876	
1825.0	0.0	1.17188	1.1413	
1826.0	0.0	1.17334	1.151	
1827.0	0.0	1.17041	1.15265	
1828.0	0.0	1.17114	1.14349	
1829.0	0.0	1.16748	1.14876	
1830.0	0.0	1.16931	1.14954	
1831.0	0.0	1.16528	1.15009	
1832.0	0.0	1.16547	1.15668	
1833.0	0.0	1.16089	1.15796	
1834.0	0.0	1.16235	1.15594	
1835.0	0.0	1.16016	1.14825	
1836.0	0.0	1.16528	1.15649	
1837.0	0.0	1.16565	1.15283	
1838.0	0.0	1.17114	1.14111	
1839.0	0.0	1.17261	1.13892	
1840.0	0.0	1.17847	1.13287	
1841.0	0.0	1.18103	1.11273	
1842.0	0.0	1.18835	1.10687	
1843.0	0.0	1.19128	1.09479	
1844.0	0.0	1.19788	1.08765	
1845.0	0.0	1.19824	1.08362	
1846.0	0.0	1.20374	1.07318	
1847.0	0.0	1.20264	1.0697	
1848.0	0.0	1.2052	1.05872	
1849.0	0.0	1.203	1.05469	
1850.0	0.0	1.20502	1.04315	
1851.0	0.0	1.20337	1.03152	
1852.0	0.0	1.20557	1.01752	
1853.0	0.0	1.20337	1.01147	
1854.0	0.0	1.20374	0.99866	
1855.0	0.0	1.19989	0.98657	
1856.0	0.0	1.20117	0.97906	
1857.0	0.0	1.19824	0.9635	
1858.0	0.0	1.19971	0.95526	
1859.0	0.0	1.19696	0.94501	
1860.0	0.0	1.19678	0.9364	
1861.0	0.0	1.19238	0.92212	
1862.0	0.0	1.19312	0.9115	
1863.0	0.0	1.18982	0.89905	
1864.0	0.0	1.18909	0.88715	
1865.0	0.0	1.18506	0.87378	
1866.0	0.0	1.18616	0.86243	
1867.0	0.0	1.18396	0.84979	
1868.0	0.0	1.18835	0.83661	
1869.0	0.0	1.18652	0.82471	
1870.0	0.0	1.19092	0.81171	
1871.0	0.0	1.19202	0.80164	
1872.0	0.0	1.19897	0.7912	
1873.0	0.0	1.203	0.78589	
1874.0	0.0	1.21106	0.78333	
1875.0	0.0	1.21619	0.77838	
1876.0	0.0	1.22754	0.77582	
1877.0	0.0	1.2334	0.77051	
1878.0	0.0	1.24329	0.76666	
1879.0	0.0	1.24731	0.76245	
1880.0	0.0	1.25647	0.76154	
1881.0	0.0	1.25867	0.75568	
1882.0	0.0	1.26379	0.75623	
1883.0	0.0	1.26343	0.75476	
1884.0	0.0	1.26654	0.75879	
1885.0	0.0	1.26453	0.7522	
1886.0	0.0	1.26489	0.75256	
1887.0	0.0	1.26233	0.74725	
1888.0	0.0	1.2627	0.74615	
1889.0	0.0	1.2605	0.74414	
1890.0	0.0	1.25977	0.74707	
1891.0	0.0	1.25391	0.74268	
1892.0	0.0	1.25317	0.74194	
1893.0	0.0	1.24658	0.73938	
1894.0	0.0	1.24512	0.7386	
1895.0	0.0	1.23926	0.73224	
1896.0	0.0	1.23926	0.72675	
1897.0	0.0	1.23376	0.71979	
1898.0	0.0	1.2334	0.71503	
1899.0	0.0	1.22644	0.70166	
1900.0	0.0	1.2226	0.69543	
1901.0	0.0	1.21545	0.68719	
1902.0	0.0	1.21289	0.67328	
1903.0	0.0	1.20557	0.66119	
1904.0	0.0	1.203	0.65657	
1905.0	0.0	1.19788	0.64325	
1906.0	0.0	1.20044	0.63519	
1907.0	0.0	1.19824	0.6264	
1908.0	0.0	1.20081	0.61908	
1909.0	0.0	1.19568	0.61249	
1910.0	0.0	1.19751	0.60663	
1911.0	0.0	1.19348	0.59894	
1912.0	0.0	1.19641	0.59912	
1913.0	0.0	1.19458	0.58813	
1914.0	0.0	1.19861	0.58667	
1915.0	0.0	1.19788	0.58594	
1916.0	0.0	1.20264	0.5874	
1917.0	0.0	1.20044	0.58626	
1918.0	0.0	1.20447	0.59033	
1919.0	0.0	1.20227	0.5896	
1920.0	0.0	1.2041	0.58887	
1921.0	0.0	1.20447	0.59125	
1922.0	0.0	1.2063	0.58667	
1923.0	0.0	1.20355	0.59125	
1924.0	0.0	1.20557	0.58923	
1925.0	0.0	1.20337	0.58997	
1926.0	0.0	1.20483	0.5918	
1927.0	0.0	1.20081	0.59399	
1928.0	0.0	1.20044	0.5874	
1929.0	0.0	1.19458	0.59253	
1930.0	0.0	1.19238	0.59399	
1931.0	0.0	1.18506	0.58887	
1932.0	0.0	1.18359	0.5929	
1933.0	0.0	1.17773	0.59216	
1934.0	0.0	1.17517	0.59766	
1935.0	0.0	1.16766	0.59509	
1936.0	0.0	1.16455	0.59436	
1937.0	0.0	1.15723	0.59088	
1938.0	0.0	1.1554	0.59216	
1939.0	0.0	1.14954	0.58887	
1940.0	0.0	1.15027	0.58667	
1941.0	0.0	1.14478	0.58557	
1942.0	0.0	1.14514	0.58411	
1943.0	0.0	1.13965	0.57385	
1944.0	0.0	1.14111	0.57056	
1945.0	0.0	1.13818	0.56635	
1946.0	0.0	1.14001	0.55696	
1947.0	0.0	1.13672	0.55261	
1948.0	0.0	1.13892	0.55591	
1949.0	0.0	1.13525	0.54675	
1950.0	0.0	1.138	0.54602	
1951.0	0.0	1.13562	0.53815	
1952.0	0.0	1.13818	0.53229	
1953.0	0.0	1.13745	0.52588	
1954.0	0.0	1.14075	0.5213	
1955.0	0.0	1.13965	0.50977	
1956.0	0.0	1.14404	0.50867	
1957.0	0.0	1.14404	0.50024	
1958.0	0.0	1.14862	0.49127	
1959.0	0.0	1.14734	0.47333	
1960.0	0.0	1.151	0.46289	
1961.0	0.0	1.14954	0.453	
1962.0	0.0	1.1521	0.44641	
1963.0	0.0	1.14844	0.43781	
1964.0	0.0	1.15393	0.42334	
1965.0	0.0	1.15649	0.40613	
1966.0	0.0	1.16858	0.38489	
1967.0	0.0	1.1803	0.37454	
1968.0	0.0	1.19861	0.35559	
1969.0	0.0	1.21655	0.33417	
1970.0	0.0	1.23853	0.31915	
1971.0	0.0	1.25867	0.29498	
1972.0	0.0	1.27808	0.27557	
1973.0	0.0	1.29492	0.25928	
1974.0	0.0	1.30994	0.24792	
1975.0	0.0	1.32349	0.22577	
1976.0	0.0	1.33612	0.20947	
1977.0	0.0	1.34875	0.19812	
1978.0	0.0	1.35938	0.19885	
1979.0	0.0	1.37036	0.18988	
1980.0	0.0	1.37878	0.17725	
1981.0	0.0	1.38721	0.16901	
1982.0	0.0	1.39197	0.16132	
1983.0	0.0	1.38062	0.14667	
1984.0	0.0	1.35754	0.15216	
1985.0	0.0	1.31982	0.13641	
1986.0	0.0	1.2843	0.13605	
1987.0	0.0	1.24475	0.12158	
1988.0	0.0	1.21179	0.10107	
1989.0	0.0	1.17059	0.08212	
1990.0	0.0	1.13123	0.0434	
1991.0	0.0	1.09094	-0.00531	
1992.0	0.0	1.05798	-0.03918	
1993.0	0.0	1.0188	-0.08331	
1994.0	0.0	0.97888	-0.11133	
1995.0	0.0	0.92944	-0.1403	
1996.0	0.0	0.88147	-0.17468	
1997.0	0.0	0.82764	-0.19427	
1998.0	0.0	0.77893	-0.22064	
1999.0	0.0	0.72766	-0.23749	
2000.0	0.0	0.67676	-0.27612	
2001.0	0.0	0.62109	-0.2959	
2002.0	0.0	0.56726	-0.31348	
2003.0	0.0	0.50647	-0.33783	
2004.0	0.0	0.44989	-0.34955	
2005.0	0.0	0.3902	-0.35925	
2006.0	0.0	0.33417	-0.36868	
2007.0	0.0	0.27393	-0.3864	
2008.0	0.0	0.21533	-0.40448	
2009.0	0.0	0.15161	-0.41821	
2010.0	0.0	0.09155	-0.43781	
2011.0	0.0	0.0304	-0.45135	
2012.0	0.0	-0.02527	-0.46545	
2013.0	0.0	-0.08313	-0.49127	
2014.0	0.0	-0.13733	-0.51562	
2015.0	0.0	-0.19574	-0.54474	
2016.0	0.0	-0.24792	-0.5777	
2017.0	0.0	-0.29645	-0.61835	
2018.0	0.0	-0.35486	-0.66133	
2019.0	0.0	-0.4118	-0.70734	
2020.0	0.0	-0.46143	-0.74524	
2021.0	0.0	-0.51123	-0.78186	
2022.0	0.0	-0.55444	-0.81665	
2023.0	0.0	-0.59821	-0.85217	
2024.0	0.0	-0.63574	-0.88733	
2025.0	0.0	-0.67438	-0.91992	
2026.0	0.0	-0.70752	-0.9505	
2027.0	0.0	-0.74377	-0.98016	
2028.0	0.0	-0.77637	-1.00323	
2029.0	0.0	-0.81335	-1.0296	
2030.0	0.0	-0.84686	-1.05762	
2031.0	0.0	-0.88275	-1.08302	
2032.0	0.0	-0.91498	-1.10001	
2033.0	0.0	-0.94684	-1.12033	
2034.0	0.0	-0.97632	-1.14336	
2035.0	0.0	-1.00374	-1.16011	
2036.0	0.0	-1.0253	-1.17915	
2037.0	0.0	-1.04677	-1.1954	
2038.0	0.0	-1.06119	-1.19861	
2039.0	0.0	-1.07822	-1.1927	
2040.0	0.0	-1.09021	-1.17311	
2041.0	0.0	-1.10806	-1.15906	
2042.0	0.0	-1.12418	-1.15334	
2043.0	0.0	-1.14445	-1.17142	
2044.0	0.0	-1.16052	-1.19051	
2045.0	0.0	-1.17856	-1.2084	
2046.0	0.0	-1.18817	-1.21957	
2047.0	0.0	-1.19673	-1.22891	
2048.0	0.0	-1.19321	-1.23944	
2049.0	0.0	-1.19069	-1.25423	
2050.0	0.0	-1.17728	-1.26837	
2051.0	0.0	-1.16304	-1.27789	
2052.0	0.0	-1.13708	-1.29218	
2053.0	0.0	-1.11401	-1.30563	
2054.0	0.0	-1.08197	-1.31461	
2055.0	0.0	-1.05121	-1.31891	
2056.0	0.0	-1.01157	-1.3309	
2057.0	0.0	-0.97485	-1.33603	
2058.0	0.0	-0.93311	-1.34111	
2059.0	0.0	-0.89639	-1.34445	
2060.0	0.0	-0.85281	-1.34317	
2061.0	0.0	-0.81299	-1.3434	
2062.0	0.0	-0.76685	-1.35434	
2063.0	0.0	-0.72656	-1.35754	
2064.0	0.0	-0.68152	-1.36093	
2065.0	0.0	-0.64069	-1.36221	
2066.0	0.0	-0.59473	-1.36034	
2067.0	0.0	-0.55463	-1.34413	
2068.0	0.0	-0.51105	-1.34125	
2069.0	0.0	-0.47168	-1.34322	
2070.0	0.0	-0.42719	-1.35265	
2071.0	0.0	-0.38507	-1.35782	
2072.0	0.0	-0.33398	-1.37251	
2073.0	0.0	-0.28345	-1.37965	
2074.0	0.0	-0.22742	-1.37947	
2075.0	0.0	-0.17523	-1.38185	
2076.0	0.0	-0.11646	-1.37988	
2077.0	0.0	-0.06207	-1.38144	
2078.0	0.0	-0.00531	-1.36317	
2079.0	0.0	0.0412	-1.34889	
2080.0	0.0	0.08789	-1.33136	
2081.0	0.0	0.12689	-1.33058	
2082.0	0.0	0.16663	-1.34235	
2083.0	0.0	0.19647	-1.34244	
2084.0	0.0	0.22815	-1.35924	
2085.0	0.0	0.25745	-1.3689	
2086.0	0.0	0.297	-1.37338	
2087.0	0.0	0.33398	-1.38309	
2088.0	0.0	0.37537	-1.39755	
2089.0	0.0	0.40979	-1.4046	
2090.0	0.0	0.44348	-1.41032	
2091.0	0.0	0.4704	-1.40488	
2092.0	0.0	0.49677	-1.41861	
2093.0	0.0	0.51636	-1.41499	
2094.0	0.0	0.53375	-1.41943	
2095.0	0.0	0.54199	-1.4269	
2096.0	0.0	0.55225	-1.43253	
2097.0	0.0	0.55811	-1.4269	
2098.0	0.0	0.5744	-1.42973	
2099.0	0.0	0.59564	-1.43806	
2100.0	0.0	0.63171	-1.41879	
2101.0	0.0	0.65918	-1.40973	
2102.0	0.0	0.67566	-1.39682	
2103.0	0.0	0.68188	-1.3878	
2104.0	0.0	0.69067	-1.35992	
2105.0	0.0	0.69763	-1.34166	
2106.0	0.0	0.71448	-1.32312	
2107.0	0.0	0.72876	-1.31932	
2108.0	0.0	0.74451	-1.29515	
2109.0	0.0	0.72949	-1.28481	
2110.0	0.0	0.68188	-1.26773	
2111.0	0.0	0.61011	-1.24072	
2112.0	0.0	0.53412	-1.20374	
2113.0	0.0	0.45154	-1.16766	
2114.0	0.0	0.38086	-1.13269	
2115.0	0.0	0.30908	-1.1076	
2116.0	0.0	0.24371	-1.08435	
2117.0	0.0	0.17212	-1.06613	
2118.0	0.0	0.10034	-1.04352	
2119.0	0.0	0.00586	-1.02969	
2120.0	0.0	-0.08643	-1.022	
2121.0	0.0	-0.17303	-1.02365	
2122.0	0.0	-0.25323	-1.01459	
2123.0	0.0	-0.32648	-1.01143	
2124.0	0.0	-0.39111	-1.00305	
2125.0	0.0	-0.45483	-1.0177	
2126.0	0.0	-0.51178	-1.0199	
2127.0	0.0	-0.56873	-1.0318	
2128.0	0.0	-0.62	-1.02727	
2129.0	0.0	-0.66852	-1.01779	
2130.0	0.0	-0.70953	-0.9911	
2131.0	0.0	-0.75476	-0.9679	
2132.0	0.0	-0.79688	-0.94661	
2133.0	0.0	-0.83514	-0.93448	
2134.0	0.0	-0.867	-0.92523	
2135.0	0.0	-0.8996	-0.91589	
2136.0	0.0	-0.92853	-0.89575	
2137.0	0.0	-0.95924	-0.86334	
2138.0	0.0	-0.98383	-0.81848	
2139.0	0.0	-1.0101	-0.77087	
2140.0	0.0	-1.02777	-0.72162	
2141.0	0.0	-1.05048	-0.66284	
2142.0	0.0	-1.07149	-0.61038	
2143.0	0.0	-1.09488	-0.55783	
2144.0	0.0	-1.11653	-0.50336	
2145.0	0.0	-1.1369	-0.44769	
2146.0	0.0	-1.15283	-0.39459	
2147.0	0.0	-1.16922	-0.36566	
2148.0	0.0	-1.17654	-0.3089	
2149.0	0.0	-1.18396	-0.25818	
2150.0	0.0	-1.18181	-0.22888	
2151.0	0.0	-1.18002	-0.18018	
2152.0	0.0	-1.16611	-0.13184	
2153.0	0.0	-1.14706	-0.0932	
2154.0	0.0	-1.11475	-0.06134	
2155.0	0.0	-1.08252	-0.01263	
2156.0	0.0	-1.04333	0.03918	
2157.0	0.0	-1.00854	0.09393	
2158.0	0.0	-0.9706	0.13879	
2159.0	0.0	-0.93896	0.1886	
2160.0	0.0	-0.90051	0.22559	
2161.0	0.0	-0.86169	0.27649	
2162.0	0.0	-0.81409	0.31897	
2163.0	0.0	-0.76538	0.35101	
2164.0	0.0	-0.70532	0.37683	
2165.0	0.0	-0.64252	0.39313	
2166.0	0.0	-0.57074	0.40851	
2167.0	0.0	-0.50464	0.43542	
2168.0	0.0	-0.44	0.46344	
2169.0	0.0	-0.3826	0.50519	
2170.0	0.0	-0.32831	0.53082	
2171.0	0.0	-0.28107	0.55444	
2172.0	0.0	-0.22797	0.54822	
2173.0	0.0	-0.17322	0.54822	
2174.0	0.0	-0.11133	0.53668	
2175.0	0.0	-0.05658	0.52515	
2176.0	0.0	-0.00861	0.52936	
2177.0	0.0	0.02051	0.54382	
2178.0	0.0	0.04395	0.57477	
2179.0	0.0	0.06189	0.60461	
2180.0	0.0	0.09229	0.62988	
2181.0	0.0	0.13513	0.65808	
2182.0	0.0	0.19318	0.67712	
2183.0	0.0	0.25159	0.68628	
2184.0	0.0	0.31055	0.69067	
2185.0	0.0	0.35852	0.68884	
2186.0	0.0	0.40649	0.68573	
2187.0	0.0	0.45374	0.67996	
2188.0	0.0	0.50537	0.6828	
2189.0	0.0	0.55481	0.68976	
2190.0	0.0	0.60461	0.70441	
2191.0	0.0	0.65112	0.71576	
2192.0	0.0	0.69653	0.7392	
2193.0	0.0	0.73901	0.75073	
2194.0	0.0	0.77747	0.76428	
2195.0	0.0	0.80878	0.76199	
2196.0	0.0	0.83276	0.77051	
2197.0	0.0	0.84814	0.77142	
2198.0	0.0	0.86829	0.77509	
2199.0	0.0	0.88989	0.7901	
2200.0	0.0	0.92358	0.80109	
2201.0	0.0	0.95581	0.81207	
2202.0	0.0	0.98621	0.8172	
2203.0	0.0	1.0144	0.83038	
2204.0	0.0	1.04004	0.84723	
2205.0	0.0	1.06567	0.86334	
2206.0	0.0	1.08618	0.8833	
2207.0	0.0	1.10468	0.89447	
2208.0	0.0	1.12354	0.90266	
2209.0	0.0	1.14001	0.90381	
2210.0	0.0	1.15796	0.90363	
2211.0	0.0	1.17114	0.89429	
2212.0	0.0	1.18652	0.89539	
2213.0	0.0	1.19678	0.88898	
2214.0	0.0	1.21143	0.8866	
2215.0	0.0	1.22644	0.87561	
2216.0	0.0	1.24072	0.86133	
2217.0	0.0	1.25464	0.83972	
2218.0	0.0	1.26672	0.82013	
2219.0	0.0	1.27661	0.80127	
2220.0	0.0	1.28357	0.78149	
2221.0	0.0	1.2832	0.75842	
2222.0	0.0	1.2876	0.73187	
2223.0	0.0	1.29089	0.69727	
2224.0	0.0	1.29382	0.66577	
2225.0	0.0	1.28247	0.63922	
2226.0	0.0	1.26855	0.61652	
2227.0	0.0	1.24731	0.59033	
2228.0	0.0	1.24182	0.56433	
2229.0	0.0	1.2464	0.53522	
2230.0	0.0	1.26672	0.5213	
2231.0	0.0	1.28558	0.50757	
2232.0	0.0	1.2995	0.51251	
2233.0	0.0	1.31213	0.49251	
2234.0	0.0	1.31982	0.48907	
2235.0	0.0	1.32458	0.47443	
2236.0	0.0	1.33374	0.46234	
2237.0	0.0	1.34033	0.45337	
2238.0	0.0	1.34583	0.4433	
2239.0	0.0	1.34839	0.42151	
2240.0	0.0	1.35388	0.4043	
2241.0	0.0	1.35297	0.39917	
2242.0	0.0	1.35645	0.39478	
2243.0	0.0	1.35425	0.38196	
2244.0	0.0	1.34839	0.37262	
2245.0	0.0	1.33228	0.35577	
2246.0	0.0	1.31836	0.3479	
2247.0	0.0	1.29675	0.33362	
2248.0	0.0	1.27588	0.31824	
2249.0	0.0	1.25171	0.30615	
2250.0	0.0	1.24365	0.29755	
2251.0	0.0	1.25354	0.28564	
2252.0	0.0	1.27405	0.27795	
2253.0	0.0	1.29199	0.27209	
2254.0	0.0	1.30554	0.28912	
2255.0	0.0	1.31653	0.31256	
2256.0	0.0	1.32642	0.31934	
2257.0	0.0	1.32971	0.34113	
2258.0	0.0	1.33813	0.36475	
2259.0	0.0	1.33484	0.35944	
2260.0	0.0	1.33667	0.35522	
2261.0	0.0	1.33154	0.35596	
2262.0	0.0	1.33008	0.38571	
2263.0	0.0	1.32733	0.38965	
2264.0	0.0	1.33044	0.41565	
2265.0	0.0	1.32825	0.42975	
2266.0	0.0	1.33099	0.45319	
2267.0	0.0	1.33191	0.45923	
2268.0	0.0	1.34326	0.46033	
2269.0	0.0	1.35059	0.46289	
2270.0	0.0	1.35571	0.46692	
2271.0	0.0	1.34839	0.46637	
2272.0	0.0	1.33264	0.47232	
2273.0	0.0	1.29968	0.48889	
2274.0	0.0	1.26947	0.49475	
2275.0	0.0	1.23798	0.49292	
2276.0	0.0	1.21674	0.49786	
2277.0	0.0	1.19421	0.49329	
2278.0	0.0	1.17792	0.49219	
2279.0	0.0	1.15833	0.48175	
2280.0	0.0	1.14478	0.47168	
2281.0	0.0	1.13269	0.4704	
2282.0	0.0	1.13892	0.45703	
2283.0	0.0	1.14697	0.45776	
2284.0	0.0	1.16272	0.45483	
2285.0	0.0	1.17242	0.46088	
2286.0	0.0	1.1814	0.45209	
2287.0	0.0	1.18066	0.43927	
2288.0	0.0	1.1814	0.43762	
2289.0	0.0	1.1748	0.41272	
2290.0	0.0	1.1748	0.4151	
2291.0	0.0	1.17224	0.41711	
2292.0	0.0	1.17883	0.42609	
2293.0	0.0	1.18835	0.42627	
2294.0	0.0	1.20337	0.42847	
2295.0	0.0	1.21106	0.42792	
2296.0	0.0	1.22021	0.4162	
2297.0	0.0	1.22095	0.39679	
2298.0	0.0	1.22388	0.38104	
2299.0	0.0	1.22095	0.35834	
2300.0	0.0	1.22278	0.32739	
2301.0	0.0	1.22498	0.30286	
2302.0	0.0	1.23706	0.28143	
2303.0	0.0	1.24585	0.2558	
2304.0	0.0	1.26123	0.24756	
2305.0	0.0	1.27039	0.2254	
2306.0	0.0	1.27881	0.22119	
2307.0	0.0	1.27222	0.21973	
2308.0	0.0	1.2594	0.20673	
2309.0	0.0	1.23157	0.20215	
2310.0	0.0	1.2085	0.21881	
2311.0	0.0	1.18909	0.21167	
2312.0	0.0	1.18469	0.21323	
2313.0	0.0	1.18542	0.20911	
2314.0	0.0	1.20264	0.23035	
2315.0	0.0	1.22278	0.25049	
2316.0	0.0	1.24292	0.2558	
2317.0	0.0	1.25977	0.2536	
2318.0	0.0	1.27112	0.27045	
2319.0	0.0	1.25867	0.27045	
2320.0	0.0	1.22681	0.26587	
2321.0	0.0	1.17041	0.27118	
2322.0	0.0	1.11108	0.25122	
2323.0	0.0	1.05396	0.24792	
2324.0	0.0	1.01257	0.23438	
2325.0	0.0	0.97852	0.23126	
2326.0	0.0	0.95819	0.23328	
2327.0	0.0	0.9408	0.24481	
2328.0	0.0	0.92651	0.24994	
2329.0	0.0	0.90637	0.25781	
2330.0	0.0	0.8844	0.26495	
2331.0	0.0	0.8584	0.26985	
2332.0	0.0	0.83936	0.27393	
2333.0	0.0	0.82104	0.27686	
2334.0	0.0	0.80676	0.29169	
2335.0	0.0	0.79028	0.30304	
2336.0	0.0	0.78076	0.32465	
2337.0	0.0	0.77527	0.34955	
2338.0	0.0	0.7771	0.37573	
2339.0	0.0	0.77435	0.39954	
2340.0	0.0	0.77197	0.42041	
2341.0	0.0	0.76666	0.43524	
2342.0	0.0	0.77032	0.45374	
2343.0	0.0	0.77637	0.47388	
2344.0	0.0	0.79248	0.49548	
2345.0	0.0	0.81335	0.50922	
2346.0	0.0	0.84998	0.52002	
2347.0	0.0	0.89319	0.52643	
2348.0	0.0	0.93677	0.52533	
2349.0	0.0	0.97559	0.51251	
2350.0	0.0	1.00928	0.48962	
2351.0	0.0	1.03674	0.45264	
2352.0	0.0	1.06604	0.41913	
2353.0	0.0	1.09076	0.38251	
2354.0	0.0	1.11877	0.33197	
2355.0	0.0	1.14514	0.31622	
2356.0	0.0	1.16895	0.2991	
2357.0	0.0	1.19202	0.26367	
2358.0	0.0	1.20593	0.25488	
2359.0	0.0	1.203	0.22339	
2360.0	0.0	1.18726	0.21643	
2361.0	0.0	1.16235	0.1886	
2362.0	0.0	1.15063	0.16718	
2363.0	0.0	1.15961	0.13165	
2364.0	0.0	1.18652	0.10254	
2365.0	0.0	1.20923	0.09283	
2366.0	0.0	1.22095	0.07819	
2367.0	0.0	1.20795	0.11023	
2368.0	0.0	1.17847	0.13989	
2369.0	0.0	1.14551	0.17688	
2370.0	0.0	1.14111	0.2049	
2371.0	0.0	1.16162	0.22449	
2372.0	0.0	1.18872	0.24353	
2373.0	0.0	1.21326	0.25269	
2374.0	0.0	1.2323	0.27191	
2375.0	0.0	1.24713	0.28217	
2376.0	0.0	1.2561	0.29608	
2377.0	0.0	1.24951	0.31952	
2378.0	0.0	1.23083	0.32025	
2379.0	0.0	1.2041	0.33691	
2380.0	0.0	1.18433	0.32336	
2381.0	0.0	1.16254	0.336	
2382.0	0.0	1.14478	0.33206	
2383.0	0.0	1.11951	0.33014	
2384.0	0.0	1.08911	0.31055	
2385.0	0.0	1.04297	0.29315	
2386.0	0.0	0.98163	0.2688	
2387.0	0.0	0.90344	0.23108	
2388.0	0.0	0.81995	0.20343	
2389.0	0.0	0.73315	0.16937	
2390.0	0.0	0.65186	0.14557	
2391.0	0.0	0.56982	0.11975	
2392.0	0.0	0.48706	0.10968	
2393.0	0.0	0.40283	0.10876	
2394.0	0.0	0.32446	0.11664	
2395.0	0.0	0.25378	0.12085	
2396.0	0.0	0.19666	0.1366	
2397.0	0.0	0.15308	0.14886	
2398.0	0.0	0.12708	0.16516	
2399.0	0.0	0.11133	0.17596	
2400.0	0.0	0.10272	0.19666	
2401.0	0.0	0.09448	0.22797	
2402.0	0.0	0.09302	0.26596	
2403.0	0.0	0.09595	0.30231	
2404.0	0.0	0.11371	0.34937	
2405.0	0.0	0.13934	0.39459	
2406.0	0.0	0.16553	0.42572	
2407.0	0.0	0.18091	0.4726	
2408.0	0.0	0.19153	0.49805	
2409.0	0.0	0.19629	0.51929	
2410.0	0.0	0.20544	0.54877	
2411.0	0.0	0.22229	0.56616	
2412.0	0.0	0.25232	0.57385	
2413.0	0.0	0.28748	0.57568	
2414.0	0.0	0.33142	0.57166	
2415.0	0.0	0.37811	0.56689	
2416.0	0.0	0.43066	0.55728	
2417.0	0.0	0.4834	0.54291	
2418.0	0.0	0.53687	0.52917	
2419.0	0.0	0.58301	0.5224	
2420.0	0.0	0.62036	0.51178	
2421.0	0.0	0.64435	0.49438	
2422.0	0.0	0.65955	0.46619	
2423.0	0.0	0.66321	0.43213	
2424.0	0.0	0.65845	0.40118	
2425.0	0.0	0.64325	0.36786	
2426.0	0.0	0.62732	0.3392	
2427.0	0.0	0.61047	0.31165	
2428.0	0.0	0.60352	0.28638	
2429.0	0.0	0.60059	0.26331	
2430.0	0.0	0.60352	0.24225	
2431.0	0.0	0.60315	0.21826	
2432.0	0.0	0.61047	0.19098	
2433.0	0.0	0.61963	0.16699	
2434.0	0.0	0.63208	0.14392	
2435.0	0.0	0.6438	0.11261	
2436.0	0.0	0.66321	0.08478	
2437.0	0.0	0.68481	0.05804	
2438.0	0.0	0.71667	0.039	
2439.0	0.0	0.75623	0.01099	
2440.0	0.0	0.80219	0.00256	
2441.0	0.0	0.84412	-0.00623	
2442.0	0.0	0.88037	-0.02692	
2443.0	0.0	0.90747	-0.03918	
2444.0	0.0	0.92395	-0.04578	
2445.0	0.0	0.91992	-0.05988	
2446.0	0.0	0.89832	-0.04852	
2447.0	0.0	0.85327	-0.03754	
2448.0	0.0	0.79138	-0.03589	
2449.0	0.0	0.70898	-0.03534	
2450.0	0.0	0.62256	-0.04816	
2451.0	0.0	0.54053	-0.07361	
2452.0	0.0	0.47314	-0.10529	
2453.0	0.0	0.41492	-0.13239	
2454.0	0.0	0.36841	-0.15015	
2455.0	0.0	0.32098	-0.15747	
2456.0	0.0	0.27173	-0.16846	
2457.0	0.0	0.21002	-0.18036	
2458.0	0.0	0.13824	-0.20078	
2459.0	0.0	0.05566	-0.23071	
2460.0	0.0	-0.02014	-0.26056	
2461.0	0.0	-0.09009	-0.28894	
2462.0	0.0	-0.14832	-0.31453	
2463.0	0.0	-0.19592	-0.34131	
2464.0	0.0	-0.22943	-0.37024	
2465.0	0.0	-0.258	-0.39917	
2466.0	0.0	-0.28015	-0.42654	
2467.0	0.0	-0.29993	-0.45062	
2468.0	0.0	-0.3078	-0.47278	
2469.0	0.0	-0.30231	-0.49187	
2470.0	0.0	-0.27795	-0.51379	
2471.0	0.0	-0.24609	-0.54858	
2472.0	0.0	-0.20563	-0.58264	
2473.0	0.0	-0.16205	-0.61853	
2474.0	0.0	-0.10822	-0.63593	
2475.0	0.0	-0.05273	-0.66467	
2476.0	0.0	0.01044	-0.67799	
2477.0	0.0	0.0769	-0.68408	
2478.0	0.0	0.14941	-0.68152	
2479.0	0.0	0.21313	-0.70734	
2480.0	0.0	0.2688	-0.72748	
2481.0	0.0	0.3078	-0.74945	
2482.0	0.0	0.33691	-0.78653	
2483.0	0.0	0.35632	-0.82448	
2484.0	0.0	0.3739	-0.8681	
2485.0	0.0	0.38892	-0.88788	
2486.0	0.0	0.40576	-0.9201	
2487.0	0.0	0.41309	-0.95178	
2488.0	0.0	0.41382	-0.95746	
2489.0	0.0	0.40503	-0.97023	
2490.0	0.0	0.39056	-0.98383	
2491.0	0.0	0.36255	-0.9938	
2492.0	0.0	0.33014	-1.01065	
2493.0	0.0	0.28345	-1.03473	
2494.0	0.0	0.2287	-1.05386	
2495.0	0.0	0.16406	-1.07927	
2496.0	0.0	0.09979	-1.10779	
2497.0	0.0	0.03534	-1.1239	
2498.0	0.0	-0.01721	-1.13672	
2499.0	0.0	-0.06134	-1.14954	
2500.0	0.0	-0.09888	-1.15155	
2501.0	0.0	-0.14136	-1.14944	
2502.0	0.0	-0.18677	-1.14931	
2503.0	0.0	-0.24023	-1.14651	
2504.0	0.0	-0.29315	-1.14276	
2505.0	0.0	-0.35175	-1.16153	
2506.0	0.0	-0.41089	-1.17746	
2507.0	0.0	-0.47205	-1.18735	
2508.0	0.0	-0.52972	-1.19394	
2509.0	0.0	-0.58374	-1.19481	
2510.0	0.0	-0.63501	-1.19257	
2511.0	0.0	-0.68298	-1.1786	
2512.0	0.0	-0.72748	-1.17206	
2513.0	0.0	-0.76996	-1.16766	
2514.0	0.0	-0.81024	-1.15938	
2515.0	0.0	-0.84705	-1.14487	
2516.0	0.0	-0.88293	-1.11758	
2517.0	0.0	-0.91205	-1.07886	
2518.0	0.0	-0.92889	-1.04599	
2519.0	0.0	-0.93764	-1.01239	
2520.0	0.0	-0.93951	-0.97797	
2521.0	0.0	-0.93915	-0.94189	
2522.0	0.0	-0.93127	-0.89694	
2523.0	0.0	-0.94208	-0.84842	
2524.0	0.0	-0.95911	-0.79285	
2525.0	0.0	-0.98209	-0.73828	
2526.0	0.0	-1.00186	-0.66522	
2527.0	0.0	-1.02356	-0.59161	
2528.0	0.0	-1.04718	-0.51416	
2529.0	0.0	-1.0724	-0.42929	
2530.0	0.0	-1.09607	-0.34882	
2531.0	0.0	-1.11768	-0.28345	
2532.0	0.0	-1.13525	-0.2243	
2533.0	0.0	-1.14798	-0.14172	
2534.0	0.0	-1.15045	-0.08698	
2535.0	0.0	-1.151	0.00165	
2536.0	0.0	-1.14917	0.07063	
2537.0	0.0	-1.15247	0.13275	
2538.0	0.0	-1.14967	0.20123	
2539.0	0.0	-1.13928	0.25671	
2540.0	0.0	-1.11456	0.3327	
2541.0	0.0	-1.08206	0.38763	
2542.0	0.0	-1.0416	0.41089	
2543.0	0.0	-1.01221	0.4248	
2544.0	0.0	-0.99023	0.47351	
2545.0	0.0	-0.97897	0.49127	
2546.0	0.0	-0.9668	0.50629	
2547.0	0.0	-0.95471	0.5354	
2548.0	0.0	-0.93604	0.55682	
2549.0	0.0	-0.91452	0.57422	
2550.0	0.0	-0.88586	0.57898	
2551.0	0.0	-0.85602	0.57257	
2552.0	0.0	-0.82338	0.55225	
2553.0	0.0	-0.79211	0.5191	
2554.0	0.0	-0.76154	0.50391	
2555.0	0.0	-0.73169	0.4845	
2556.0	0.0	-0.6969	0.46893	
2557.0	0.0	-0.659	0.47095	
2558.0	0.0	-0.61414	0.46655	
2559.0	0.0	-0.57532	0.46765	
2560.0	0.0	-0.53485	0.48541	
2561.0	0.0	-0.49548	0.48651	
2562.0	0.0	-0.45117	0.50244	
2563.0	0.0	-0.40686	0.49384	
2564.0	0.0	-0.3642	0.48523	
2565.0	0.0	-0.33069	0.47369	
2566.0	0.0	-0.30524	0.47388	
2567.0	0.0	-0.2937	0.4726	
2568.0	0.0	-0.29095	0.47717	
2569.0	0.0	-0.29791	0.48019	
2570.0	0.0	-0.30505	0.47955	
2571.0	0.0	-0.31641	0.492	
2572.0	0.0	-0.32373	0.51251	
2573.0	0.0	-0.33105	0.52734	
2574.0	0.0	-0.33124	0.53503	
2575.0	0.0	-0.32739	0.54639	
2576.0	0.0	-0.31146	0.55847	
2577.0	0.0	-0.28802	0.5603	
2578.0	0.0	-0.25562	0.55261	
2579.0	0.0	-0.2168	0.54565	
2580.0	0.0	-0.16699	0.5116	
2581.0	0.0	-0.11206	0.4942	
2582.0	0.0	-0.05328	0.44183	
2583.0	0.0	0.00696	0.3783	
2584.0	0.0	0.07141	0.33032	
2585.0	0.0	0.13623	0.27063	
2586.0	0.0	0.20142	0.22192	
2587.0	0.0	0.26221	0.1723	
2588.0	0.0	0.32318	0.14484	
2589.0	0.0	0.38269	0.11719	
2590.0	0.0	0.4411	0.09119	
2591.0	0.0	0.48962	0.06262	
2592.0	0.0	0.53101	0.03992	
2593.0	0.0	0.5658	0.01556	
2594.0	0.0	0.60022	-0.03076	
2595.0	0.0	0.63135	-0.06665	
2596.0	0.0	0.66211	-0.1062	
2597.0	0.0	0.68774	-0.13541	
2598.0	0.0	0.71082	-0.1745	
2599.0	0.0	0.72583	-0.21515	
2600.0	0.0	0.73535	-0.22559	
2601.0	0.0	0.73389	-0.25964	
2602.0	0.0	0.7218	-0.28619	
2603.0	0.0	0.70239	-0.31238	
2604.0	0.0	0.68738	-0.3576	
2605.0	0.0	0.67493	-0.39203	
2606.0	0.0	0.66962	-0.41583	
2607.0	0.0	0.6665	-0.43643	
2608.0	0.0	0.67273	-0.46866	
2609.0	0.0	0.68518	-0.48193	
2610.0	0.0	0.71045	-0.47241	
2611.0	0.0	0.73846	-0.49072	
2612.0	0.0	0.76465	-0.50922	
2613.0	0.0	0.78589	-0.51434	
2614.0	0.0	0.8053	-0.52808	
2615.0	0.0	0.82214	-0.52643	
2616.0	0.0	0.84265	-0.53503	
2617.0	0.0	0.85913	-0.53595	
2618.0	0.0	0.86792	-0.51938	
2619.0	0.0	0.86938	-0.4845	
2620.0	0.0	0.87268	-0.45886	
2621.0	0.0	0.88	-0.43066	
2622.0	0.0	0.90198	-0.3999	
2623.0	0.0	0.93347	-0.38448	
2624.0	0.0	0.9646	-0.36063	
2625.0	0.0	0.99536	-0.35944	
2626.0	0.0	1.02173	-0.34497	
2627.0	0.0	1.04736	-0.34863	
2628.0	0.0	1.07153	-0.32446	
2629.0	0.0	1.0946	-0.31393	
2630.0	0.0	1.11658	-0.27283	
2631.0	0.0	1.13708	-0.23804	
2632.0	0.0	1.14624	-0.17377	
2633.0	0.0	1.13818	-0.10876	
2634.0	0.0	1.11841	-0.06189	
2635.0	0.0	1.08105	0.0119	
2636.0	0.0	1.03125	0.08679	
2637.0	0.0	0.96204	0.1637	
2638.0	0.0	0.87524	0.24939	
2639.0	0.0	0.77014	0.32245	
2640.0	0.0	0.65002	0.38892	
2641.0	0.0	0.51855	0.45026	
2642.0	0.0	0.39697	0.50684	
2643.0	0.0	0.28638	0.55261	
2644.0	0.0	0.18311	0.5918	
2645.0	0.0	0.08679	0.62787	
2646.0	0.0	-0.00458	0.6579	
2647.0	0.0	-0.09155	0.69781	
2648.0	0.0	-0.17395	0.72986	
2649.0	0.0	-0.24884	0.78699	
2650.0	0.0	-0.31384	0.82288	
2651.0	0.0	-0.36951	0.85291	
2652.0	0.0	-0.42151	0.87964	
2653.0	0.0	-0.4834	0.90491	
2654.0	0.0	-0.54126	0.9245	
2655.0	0.0	-0.59344	0.94373	
2656.0	0.0	-0.63959	0.95911	
2657.0	0.0	-0.67548	0.97009	
2658.0	0.0	-0.70349	0.96094	
2659.0	0.0	-0.73407	0.9472	
2660.0	0.0	-0.77289	0.94702	
2661.0	0.0	-0.81354	0.95197	
2662.0	0.0	-0.85181	0.94949	
2663.0	0.0	-0.88275	0.95068	
2664.0	0.0	-0.9001	0.96126	
2665.0	0.0	-0.90802	0.98291	
2666.0	0.0	-0.90527	1.00781	
2667.0	0.0	-0.89246	1.0274	
2668.0	0.0	-0.86627	1.05194	
2669.0	0.0	-0.83817	1.07611	
2670.0	0.0	-0.80127	1.09991	
2671.0	0.0	-0.76483	1.09863	
2672.0	0.0	-0.73727	1.13306	
2673.0	0.0	-0.72858	1.14478	
2674.0	0.0	-0.72949	1.14349	
2675.0	0.0	-0.74231	1.14075	
2676.0	0.0	-0.75604	1.12299	
2677.0	0.0	-0.77087	1.10504	
2678.0	0.0	-0.78346	1.06512	
2679.0	0.0	-0.79413	1.05835	
2680.0	0.0	-0.82892	1.04388	
2681.0	0.0	-0.87488	1.03436	
2682.0	0.0	-0.91498	1.0448	
2683.0	0.0	-0.95013	1.06494	
2684.0	0.0	-0.98154	1.07941	
2685.0	0.0	-1.00854	1.10577	
2686.0	0.0	-1.02924	1.12848	
2687.0	0.0	-1.04993	1.14404	
2688.0	0.0	-1.07172	1.15283	
2689.0	0.0	-1.0957	1.14056	
2690.0	0.0	-1.11804	1.12244	
2691.0	0.0	-1.13947	1.09479	
2692.0	0.0	-1.15878	1.05762	
2693.0	0.0	-1.17448	1.02832	
2694.0	0.0	-1.18044	0.97449	
2695.0	0.0	-1.17874	0.95361	
2696.0	0.0	-1.16693	0.92542	
2697.0	0.0	-1.15201	0.90308	
2698.0	0.0	-1.13301	0.86169	
2699.0	0.0	-1.11676	0.82983	
2700.0	0.0	-1.09694	0.77911	
2701.0	0.0	-1.08105	0.72803	
2702.0	0.0	-1.05945	0.68335	
2703.0	0.0	-1.03537	0.64087	
2704.0	0.0	-1.00433	0.58905	
2705.0	0.0	-0.97156	0.55902	
2706.0	0.0	-0.93164	0.52332	
2707.0	0.0	-0.89108	0.48395	
2708.0	0.0	-0.84833	0.44403	
2709.0	0.0	-0.80896	0.39441	
2710.0	0.0	-0.7608	0.36823	
2711.0	0.0	-0.70184	0.29768	
2712.0	0.0	-0.63135	0.27924	
2713.0	0.0	-0.56104	0.23639	
2714.0	0.0	-0.49178	0.22119	
2715.0	0.0	-0.43195	0.20251	
2716.0	0.0	-0.38947	0.17853	
2717.0	0.0	-0.3587	0.17395	
2718.0	0.0	-0.33124	0.16589	
2719.0	0.0	-0.30762	0.15985	
2720.0	0.0	-0.28693	0.15839	
2721.0	0.0	-0.27686	0.14008	
2722.0	0.0	-0.27869	0.1474	
2723.0	0.0	-0.30945	0.13788	
2724.0	0.0	-0.36914	0.12671	
2725.0	0.0	-0.44778	0.12231	
2726.0	0.0	-0.51929	0.13257	
2727.0	0.0	-0.58374	0.14671	
2728.0	0.0	-0.64325	0.19391	
2729.0	0.0	-0.69278	0.24152	
2730.0	0.0	-0.72015	0.28967	
2731.0	0.0	-0.71906	0.34222	
2732.0	0.0	-0.69031	0.3891	
2733.0	0.0	-0.65492	0.44751	
2734.0	0.0	-0.62604	0.49072	
2735.0	0.0	-0.61981	0.55591	
2736.0	0.0	-0.62622	0.61395	
2737.0	0.0	-0.63739	0.66724	
2738.0	0.0	-0.64655	0.71045	
2739.0	0.0	-0.6546	0.74011	
2740.0	0.0	-0.65524	0.76666	
2741.0	0.0	-0.65584	0.78406	
2742.0	0.0	-0.65607	0.80383	
2743.0	0.0	-0.65973	0.83954	
2744.0	0.0	-0.66037	0.8725	
2745.0	0.0	-0.66302	0.87817	
2746.0	0.0	-0.65987	0.93219	
2747.0	0.0	-0.65327	0.93878	
2748.0	0.0	-0.64563	0.95123	
2749.0	0.0	-0.64197	0.95105	
2750.0	0.0	-0.64014	0.95911	
2751.0	0.0	-0.63757	0.96625	
2752.0	0.0	-0.63492	0.97192	
2753.0	0.0	-0.64563	0.95856	
2754.0	0.0	-0.6557	0.98016	
2755.0	0.0	-0.65552	0.97577	
2756.0	0.0	-0.64664	0.97632	
2757.0	0.0	-0.63391	0.96625	
2758.0	0.0	-0.60626	0.95123	
2759.0	0.0	-0.56305	0.93054	
2760.0	0.0	-0.52103	0.91425	
2761.0	0.0	-0.47388	0.89648	
2762.0	0.0	-0.4151	0.86719	
2763.0	0.0	-0.35193	0.83276	
2764.0	0.0	-0.28455	0.80255	
2765.0	0.0	-0.22156	0.76648	
2766.0	0.0	-0.1626	0.73718	
2767.0	0.0	-0.11774	0.70862	
2768.0	0.0	-0.08331	0.68958	
2769.0	0.0	-0.05768	0.6579	
2770.0	0.0	-0.02417	0.6546	
2771.0	0.0	0.00989	0.64215	
2772.0	0.0	0.03772	0.63007	
2773.0	0.0	0.06207	0.6048	
2774.0	0.0	0.0932	0.57825	
2775.0	0.0	0.12598	0.55719	
2776.0	0.0	0.15564	0.54126	
2777.0	0.0	0.18311	0.51416	
2778.0	0.0	0.21423	0.4834	
2779.0	0.0	0.245	0.4585	
2780.0	0.0	0.27777	0.4292	
2781.0	0.0	0.31348	0.3999	
2782.0	0.0	0.35376	0.36218	
2783.0	0.0	0.39679	0.32812	
2784.0	0.0	0.44421	0.28354	
2785.0	0.0	0.49402	0.24518	
2786.0	0.0	0.54529	0.20288	
2787.0	0.0	0.59711	0.15985	
2788.0	0.0	0.64563	0.11737	
2789.0	0.0	0.69214	0.07416	
2790.0	0.0	0.7348	0.026	
2791.0	0.0	0.77563	-0.01831	
2792.0	0.0	0.81116	-0.04468	
2793.0	0.0	0.84668	-0.06409	
2794.0	0.0	0.87964	-0.09833	
2795.0	0.0	0.91168	-0.12103	
2796.0	0.0	0.94116	-0.14667	
2797.0	0.0	0.96899	-0.18439	
2798.0	0.0	0.99316	-0.22302	
2799.0	0.0	1.01147	-0.26642	
2800.0	0.0	1.02704	-0.32025	
2801.0	0.0	1.03638	-0.34909	
2802.0	0.0	1.04535	-0.36218	
2803.0	0.0	1.05029	-0.39203	
2804.0	0.0	1.05981	-0.42535	
2805.0	0.0	1.06641	-0.42957	
2806.0	0.0	1.07922	-0.45337	
2807.0	0.0	1.09296	-0.4931	
2808.0	0.0	1.10706	-0.5159	
2809.0	0.0	1.11987	-0.52954	
2810.0	0.0	1.13049	-0.55298	
2811.0	0.0	1.14075	-0.57175	
2812.0	0.0	1.15466	-0.58136	
2813.0	0.0	1.16968	-0.6004	
2814.0	0.0	1.18579	-0.61798	
2815.0	0.0	1.20227	-0.63954	
2816.0	0.0	1.21655	-0.6438	
2817.0	0.0	1.2323	-0.65442	
2818.0	0.0	1.24658	-0.68298	
2819.0	0.0	1.2605	-0.69525	
2820.0	0.0	1.27039	-0.72107	
2821.0	0.0	1.28174	-0.72583	
2822.0	0.0	1.29071	-0.7489	
2823.0	0.0	1.29932	-0.77078	
2824.0	0.0	1.30737	-0.77966	
2825.0	0.0	1.31342	-0.79193	
2826.0	0.0	1.31909	-0.81024	
2827.0	0.0	1.32532	-0.81042	
2828.0	0.0	1.33008	-0.81592	
2829.0	0.0	1.33557	-0.83588	
2830.0	0.0	1.3407	-0.85506	
2831.0	0.0	1.34509	-0.87735	
2832.0	0.0	1.34766	-0.89374	
2833.0	0.0	1.34692	-0.89978	
2834.0	0.0	1.34546	-0.9039	
2835.0	0.0	1.3418	-0.90894	
2836.0	0.0	1.33997	-0.89996	
2837.0	0.0	1.33722	-0.87836	
2838.0	0.0	1.3374	-0.88184	
2839.0	0.0	1.33704	-0.88756	
2840.0	0.0	1.3363	-0.88989	
2841.0	0.0	1.33081	-0.89987	
2842.0	0.0	1.32513	-0.88696	
2843.0	0.0	1.3158	-0.8736	
2844.0	0.0	1.30554	-0.85583	
2845.0	0.0	1.29163	-0.84315	
2846.0	0.0	1.27734	-0.83679	
2847.0	0.0	1.26068	-0.82654	
2848.0	0.0	1.24182	-0.8031	
2849.0	0.0	1.21802	-0.78186	
2850.0	0.0	1.19531	-0.77454	
2851.0	0.0	1.1748	-0.74702	
2852.0	0.0	1.16162	-0.73315	
2853.0	0.0	1.14954	-0.72382	
2854.0	0.0	1.14111	-0.70459	
2855.0	0.0	1.13599	-0.70477	
2856.0	0.0	1.13379	-0.67932	
2857.0	0.0	1.13397	-0.67355	
2858.0	0.0	1.1369	-0.65268	
2859.0	0.0	1.14148	-0.63794	
2860.0	0.0	1.14844	-0.63702	
2861.0	0.0	1.15833	-0.62311	
2862.0	0.0	1.17151	-0.61377	
2863.0	0.0	1.18579	-0.61102	
2864.0	0.0	1.20264	-0.60983	
2865.0	0.0	1.21655	-0.61194	
2866.0	0.0	1.22717	-0.60663	
2867.0	0.0	1.2345	-0.60333	
2868.0	0.0	1.24109	-0.60159	
2869.0	0.0	1.24548	-0.60901	
2870.0	0.0	1.24841	-0.59619	
2871.0	0.0	1.24768	-0.58063	
2872.0	0.0	1.24091	-0.57404	
2873.0	0.0	1.22498	-0.5625	
2874.0	0.0	1.2019	-0.54767	
2875.0	0.0	1.1781	-0.55106	
2876.0	0.0	1.15356	-0.53339	
2877.0	0.0	1.12793	-0.53522	
2878.0	0.0	1.10303	-0.51965	
2879.0	0.0	1.08069	-0.50555	
2880.0	0.0	1.05908	-0.51508	
2881.0	0.0	1.03894	-0.50858	
2882.0	0.0	1.01953	-0.50171	
2883.0	0.0	1.00085	-0.47278	
2884.0	0.0	0.98181	-0.46564	
2885.0	0.0	0.95984	-0.44843	
2886.0	0.0	0.92944	-0.42975	
2887.0	0.0	0.8855	-0.41492	
2888.0	0.0	0.82947	-0.40942	
2889.0	0.0	0.76099	-0.40393	
2890.0	0.0	0.68188	-0.39001	
2891.0	0.0	0.59363	-0.36896	
2892.0	0.0	0.49695	-0.32172	
2893.0	0.0	0.39496	-0.28894	
2894.0	0.0	0.29041	-0.23236	
2895.0	0.0	0.1897	-0.17432	
2896.0	0.0	0.09448	-0.10959	
2897.0	0.0	0.00476	-0.04156	
2898.0	0.0	-0.08112	0.03259	
2899.0	0.0	-0.16113	0.09869	
2900.0	0.0	-0.23584	0.16077	
2901.0	0.0	-0.28857	0.22375	
2902.0	0.0	-0.32227	0.26678	
2903.0	0.0	-0.34332	0.30927	
2904.0	0.0	-0.35724	0.3208	
2905.0	0.0	-0.36035	0.36896	
2906.0	0.0	-0.34241	0.40265	
2907.0	0.0	-0.29681	0.44257	
2908.0	0.0	-0.22412	0.48395	
2909.0	0.0	-0.12964	0.54053	
2910.0	0.0	-0.02856	0.58374	
2911.0	0.0	0.07178	0.64032	
2912.0	0.0	0.16516	0.67877	
2913.0	0.0	0.24921	0.7077	
2914.0	0.0	0.32465	0.73828	
2915.0	0.0	0.39478	0.73846	
2916.0	0.0	0.4519	0.75018	
2917.0	0.0	0.46875	0.75027	
2918.0	0.0	0.43762	0.7511	
2919.0	0.0	0.38342	0.75952	
2920.0	0.0	0.323	0.75696	
2921.0	0.0	0.27045	0.75568	
2922.0	0.0	0.23181	0.74249	
2923.0	0.0	0.20508	0.73169	
2924.0	0.0	0.17908	0.71924	
2925.0	0.0	0.14795	0.71686	
2926.0	0.0	0.10712	0.72437	
2927.0	0.0	0.05859	0.72327	
2928.0	0.0	0.00275	0.70578	
2929.0	0.0	-0.06116	0.70312	
2930.0	0.0	-0.13843	0.67859	
2931.0	0.0	-0.22449	0.66815	
2932.0	0.0	-0.30414	0.64563	
2933.0	0.0	-0.37646	0.62952	
2934.0	0.0	-0.44147	0.61487	
2935.0	0.0	-0.50153	0.61578	
2936.0	0.0	-0.55774	0.62329	
2937.0	0.0	-0.61084	0.65369	
2938.0	0.0	-0.66064	0.70569	
2939.0	0.0	-0.70752	0.75238	
2940.0	0.0	-0.7511	0.8042	
2941.0	0.0	-0.79285	0.84393	
2942.0	0.0	-0.83185	0.88312	
2943.0	0.0	-0.86879	0.91974	
2944.0	0.0	-0.90344	0.95233	
2945.0	0.0	-0.93672	0.98126	
2946.0	0.0	-0.96771	1.01221	
2947.0	0.0	-0.99513	1.02722	
2948.0	0.0	-1.02246	1.0177	
2949.0	0.0	-1.04828	1.04791	
2950.0	0.0	-1.07355	1.03564	
2951.0	0.0	-1.09387	1.01074	
2952.0	0.0	-1.10962	0.97778	
2953.0	0.0	-1.11703	0.94867	
2954.0	0.0	-1.11621	0.91223	
2955.0	0.0	-1.10312	0.88257	
2956.0	0.0	-1.08545	0.86751	
2957.0	0.0	-1.06201	0.84631	
2958.0	0.0	-1.02869	0.83514	
2959.0	0.0	-0.98145	0.82562	
2960.0	0.0	-0.91681	0.82397	
2961.0	0.0	-0.83386	0.81573	
2962.0	0.0	-0.73792	0.8031	
2963.0	0.0	-0.63281	0.79944	
2964.0	0.0	-0.52753	0.79541	
2965.0	0.0	-0.42609	0.79193	
2966.0	0.0	-0.33252	0.81171	
2967.0	0.0	-0.24536	0.83386	
2968.0	0.0	-0.16608	0.85785	
2969.0	0.0	-0.09027	0.87103	
2970.0	0.0	-0.01556	0.8963	
2971.0	0.0	0.06409	0.92358	
2972.0	0.0	0.14465	0.94592	
2973.0	0.0	0.22357	0.96277	
2974.0	0.0	0.29755	0.98108	
2975.0	0.0	0.36768	1.00516	
2976.0	0.0	0.42865	1.02704	
2977.0	0.0	0.48578	1.03235	
2978.0	0.0	0.53503	1.04132	
2979.0	0.0	0.57898	1.03381	
2980.0	0.0	0.61816	1.01971	
2981.0	0.0	0.65405	0.99957	
2982.0	0.0	0.68445	0.97577	
2983.0	0.0	0.71082	0.95892	
2984.0	0.0	0.73206	0.94647	
2985.0	0.0	0.75586	0.93549	
2986.0	0.0	0.77966	0.91974	
2987.0	0.0	0.80823	0.90527	
2988.0	0.0	0.8324	0.87927	
2989.0	0.0	0.85144	0.86682	
2990.0	0.0	0.86865	0.85199	
2991.0	0.0	0.88129	0.84155	
2992.0	0.0	0.8833	0.8183	
2993.0	0.0	0.89008	0.8031	
2994.0	0.0	0.89685	0.77376	
2995.0	0.0	0.90637	0.74652	
2996.0	0.0	0.91479	0.71558	
2997.0	0.0	0.92651	0.68903	
2998.0	0.0	0.93933	0.6687	
2999.0	0.0	0.95142	0.6546	
3000.0	0.0	0.95581	0.64526	
3001.0	0.0	0.9527	0.6405	
3002.0	0.0	0.94336	0.63409	
3003.0	0.0	0.93311	0.62549	
3004.0	0.0	0.92596	0.60901	
3005.0	0.0	0.93091	0.5885	
3006.0	0.0	0.94812	0.56067	
3007.0	0.0	0.97412	0.53339	
3008.0	0.0	0.99866	0.50922	
3009.0	0.0	1.02063	0.48907	
3010.0	0.0	1.03802	0.47571	
3011.0	0.0	1.05176	0.4671	
3012.0	0.0	1.06201	0.45044	
3013.0	0.0	1.07153	0.42938	
3014.0	0.0	1.07886	0.39752	
3015.0	0.0	1.08801	0.3587	
3016.0	0.0	1.09314	0.33435	
3017.0	0.0	1.09717	0.32428	
3018.0	0.0	1.09277	0.30157	
3019.0	0.0	1.08508	0.30743	
3020.0	0.0	1.0686	0.31494	
3021.0	0.0	1.04736	0.32428	
3022.0	0.0	1.021	0.34259	
3023.0	0.0	0.9928	0.35376	
3024.0	0.0	0.96606	0.35651	
3025.0	0.0	0.94373	0.36804	
3026.0	0.0	0.92578	0.38232	
3027.0	0.0	0.90967	0.39697	
3028.0	0.0	0.88293	0.40906	
3029.0	0.0	0.84045	0.41638	
3030.0	0.0	0.77856	0.42371	
3031.0	0.0	0.70203	0.42847	
3032.0	0.0	0.62201	0.43391	
3033.0	0.0	0.54675	0.43524	
3034.0	0.0	0.47681	0.42188	
3035.0	0.0	0.41162	0.38617	
3036.0	0.0	0.34937	0.33453	
3037.0	0.0	0.30176	0.27374	
3038.0	0.0	0.2666	0.20966	
3039.0	0.0	0.2439	0.15628	
3040.0	0.0	0.22449	0.10455	
3041.0	0.0	0.20343	0.0705	
3042.0	0.0	0.18091	0.04523	
3043.0	0.0	0.16479	0.04523	
3044.0	0.0	0.15472	0.06024	
3045.0	0.0	0.15161	0.08533	
3046.0	0.0	0.15564	0.12854	
3047.0	0.0	0.17249	0.17578	
3048.0	0.0	0.20178	0.21625	
3049.0	0.0	0.24133	0.24554	
3050.0	0.0	0.28217	0.26898	
3051.0	0.0	0.32483	0.27777	
3052.0	0.0	0.36914	0.27045	
3053.0	0.0	0.41968	0.26312	
3054.0	0.0	0.47607	0.25378	
3055.0	0.0	0.53796	0.24719	
3056.0	0.0	0.59875	0.24078	
3057.0	0.0	0.65479	0.2298	
3058.0	0.0	0.70752	0.2168	
3059.0	0.0	0.75604	0.20764	
3060.0	0.0	0.79688	0.18311	
3061.0	0.0	0.83789	0.16754	
3062.0	0.0	0.87598	0.15161	
3063.0	0.0	0.9126	0.12799	
3064.0	0.0	0.94043	0.11243	
3065.0	0.0	0.96204	0.09027	
3066.0	0.0	0.9809	0.07379	
3067.0	0.0	1.00269	0.05896	
3068.0	0.0	1.01953	0.04999	
3069.0	0.0	1.03455	0.04889	
3070.0	0.0	1.04297	0.0434	
3071.0	0.0	1.04938	0.0509	
3072.0	0.0	1.04956	0.04907	
3073.0	0.0	1.04956	0.05017	
3074.0	0.0	1.04846	0.05035	
3075.0	0.0	1.05121	0.07324	
3076.0	0.0	1.04993	0.08221	
3077.0	0.0	1.05249	0.0954	
3078.0	0.0	1.0545	0.13165	
3079.0	0.0	1.06165	0.1593	
3080.0	0.0	1.0741	0.21497	
3081.0	0.0	1.0979	0.24811	
3082.0	0.0	1.12262	0.28033	
3083.0	0.0	1.14478	0.30501	
3084.0	0.0	1.16235	0.33545	
3085.0	0.0	1.1814	0.33838	
3086.0	0.0	1.19019	0.33765	
3087.0	0.0	1.19678	0.36072	
3088.0	0.0	1.19824	0.388	
3089.0	0.0	1.2063	0.44257	
3090.0	0.0	1.21765	0.49329	
3091.0	0.0	1.2345	0.55518	
3092.0	0.0	1.24988	0.60315	
3093.0	0.0	1.26489	0.64893	
3094.0	0.0	1.27734	0.6861	
3095.0	0.0	1.28979	0.70496	
3096.0	0.0	1.29199	0.71448	
3097.0	0.0	1.29126	0.72144	
3098.0	0.0	1.27441	0.74011	
3099.0	0.0	1.24402	0.78003	
3100.0	0.0	1.20007	0.82324	
3101.0	0.0	1.15247	0.86353	
3102.0	0.0	1.09863	0.90161	
3103.0	0.0	1.03418	0.93677	
3104.0	0.0	0.95471	0.96121	
3105.0	0.0	0.87122	0.99591	
3106.0	0.0	0.79102	1.02228	
3107.0	0.0	0.72949	1.04901	
3108.0	0.0	0.67786	1.07336	
3109.0	0.0	0.63226	1.09204	
3110.0	0.0	0.58337	1.11346	
3111.0	0.0	0.5332	1.10188	
3112.0	0.0	0.47754	1.05634	
3113.0	0.0	0.42041	0.97504	
3114.0	0.0	0.35596	0.88696	
3115.0	0.0	0.29041	0.79999	
3116.0	0.0	0.22742	0.73297	
3117.0	0.0	0.17523	0.68738	
3118.0	0.0	0.13367	0.66064	
3119.0	0.0	0.10657	0.64746	
3120.0	0.0	0.08405	0.64563	
3121.0	0.0	0.06958	0.64966	
3122.0	0.0	0.05878	0.64105	
3123.0	0.0	0.05511	0.62036	
3124.0	0.0	0.0553	0.58626	
3125.0	0.0	0.07031	0.56927	
3126.0	0.0	0.09631	0.53064	
3127.0	0.0	0.1355	0.49246	
3128.0	0.0	0.18347	0.4519	
3129.0	0.0	0.24371	0.40375	
3130.0	0.0	0.30835	0.3577	
3131.0	0.0	0.37958	0.31256	
3132.0	0.0	0.45117	0.25891	
3133.0	0.0	0.51782	0.2049	
3134.0	0.0	0.57385	0.13916	
3135.0	0.0	0.62476	0.06921	
3136.0	0.0	0.66614	-0.0119	
3137.0	0.0	0.70203	-0.09082	
3138.0	0.0	0.72437	-0.17999	
3139.0	0.0	0.74121	-0.258	
3140.0	0.0	0.7511	-0.33215	
3141.0	0.0	0.75696	-0.38306	
3142.0	0.0	0.75403	-0.45026	
3143.0	0.0	0.75293	-0.50537	
3144.0	0.0	0.74963	-0.56561	
3145.0	0.0	0.75183	-0.59418	
3146.0	0.0	0.75513	-0.6216	
3147.0	0.0	0.76538	-0.63409	
3148.0	0.0	0.7749	-0.66641	
3149.0	0.0	0.79138	-0.68536	
3150.0	0.0	0.80713	-0.71457	
3151.0	0.0	0.82471	-0.73663	
3152.0	0.0	0.83459	-0.77069	
3153.0	0.0	0.83936	-0.78383	
3154.0	0.0	0.83496	-0.78845	
3155.0	0.0	0.83276	-0.7879	
3156.0	0.0	0.8313	-0.78754	
3157.0	0.0	0.83386	-0.78195	
3158.0	0.0	0.8313	-0.78273	
3159.0	0.0	0.8291	-0.77344	
3160.0	0.0	0.82581	-0.78937	
3161.0	0.0	0.83203	-0.77719	
3162.0	0.0	0.84467	-0.79422	
3163.0	0.0	0.86792	-0.80429	
3164.0	0.0	0.89868	-0.82196	
3165.0	0.0	0.9353	-0.84155	
3166.0	0.0	0.97009	-0.87396	
3167.0	0.0	1.00195	-0.90628	
3168.0	0.0	1.03235	-0.93951	
3169.0	0.0	1.06091	-0.96002	
3170.0	0.0	1.0871	-0.98373	
3171.0	0.0	1.112	-1.00058	
3172.0	0.0	1.13525	-1.01486	
3173.0	0.0	1.15723	-1.03587	
3174.0	0.0	1.17792	-1.05263	
3175.0	0.0	1.19751	-1.07739	
3176.0	0.0	1.21582	-1.07629	
3177.0	0.0	1.2334	-1.08188	
3178.0	0.0	1.24878	-1.08289	
3179.0	0.0	1.26379	-1.08115	
3180.0	0.0	1.27808	-1.08371	
3181.0	0.0	1.29199	-1.07867	
3182.0	0.0	1.30408	-1.09277	
3183.0	0.0	1.31543	-1.07886	
3184.0	0.0	1.32715	-1.0827	
3185.0	0.0	1.33704	-1.09094	
3186.0	0.0	1.34656	-1.0979	
3187.0	0.0	1.35571	-1.11868	
3188.0	0.0	1.36377	-1.12569	
3189.0	0.0	1.36963	-1.13562	
3190.0	0.0	1.37842	-1.14651	
3191.0	0.0	1.38428	-1.15695	
3192.0	0.0	1.3916	-1.15237	
3193.0	0.0	1.39819	-1.14551	
3194.0	0.0	1.40405	-1.14894	
3195.0	0.0	1.40881	-1.1619	
3196.0	0.0	1.39819	-1.16583	
3197.0	0.0	1.37915	-1.19009	
3198.0	0.0	1.35425	-1.20474	
3199.0	0.0	1.32861	-1.21541	
3200.0	0.0	1.29529	-1.2345	
3201.0	0.0	1.26343	-1.24054	
3202.0	0.0	1.22754	-1.25858	
3203.0	0.0	1.19128	-1.27588	
3204.0	0.0	1.14917	-1.28348	
3205.0	0.0	1.10779	-1.28242	
3206.0	0.0	1.06458	-1.29327	
3207.0	0.0	1.02722	-1.30513	
3208.0	0.0	0.99097	-1.3082	
3209.0	0.0	0.95947	-1.32578	
3210.0	0.0	0.92487	-1.32706	
3211.0	0.0	0.89502	-1.32188	
3212.0	0.0	0.86243	-1.3228	
3213.0	0.0	0.83679	-1.32248	
3214.0	0.0	0.80969	-1.34006	
3215.0	0.0	0.78241	-1.332	
3216.0	0.0	0.74707	-1.33859	
3217.0	0.0	0.71155	-1.34024	
3218.0	0.0	0.66888	-1.34381	
3219.0	0.0	0.62366	-1.34605	
3220.0	0.0	0.57129	-1.34619	
3221.0	0.0	0.5202	-1.34386	
3222.0	0.0	0.46729	-1.332	
3223.0	0.0	0.41931	-1.33827	
3224.0	0.0	0.37756	-1.32541	
3225.0	0.0	0.34863	-1.31813	
3226.0	0.0	0.32208	-1.31493	
3227.0	0.0	0.30286	-1.30641	
3228.0	0.0	0.28674	-1.31396	
3229.0	0.0	0.28162	-1.31447	
3230.0	0.0	0.27631	-1.32065	
3231.0	0.0	0.27759	-1.32111	
3232.0	0.0	0.27777	-1.31337	
3233.0	0.0	0.28235	-1.28375	
3234.0	0.0	0.28015	-1.26617	
3235.0	0.0	0.27136	-1.25372	
3236.0	0.0	0.24646	-1.24763	
3237.0	0.0	0.21094	-1.24686	
3238.0	0.0	0.16479	-1.23724	
3239.0	0.0	0.11169	-1.23102	
3240.0	0.0	0.04065	-1.22218	
3241.0	0.0	-0.04028	-1.21628	
3242.0	0.0	-0.1236	-1.21426	
3243.0	0.0	-0.19556	-1.20653	
3244.0	0.0	-0.26038	-1.20639	
3245.0	0.0	-0.31329	-1.20428	
3246.0	0.0	-0.36511	-1.20772	
3247.0	0.0	-0.42224	-1.20726	
3248.0	0.0	-0.4834	-1.20076	
3249.0	0.0	-0.54053	-1.18977	
3250.0	0.0	-0.59399	-1.18625	
3251.0	0.0	-0.64417	-1.16464	
3252.0	0.0	-0.69159	-1.16199	
3253.0	0.0	-0.73682	-1.15439	
3254.0	0.0	-0.77893	-1.14606	
3255.0	0.0	-0.81848	-1.13992	
3256.0	0.0	-0.85634	-1.12679	
3257.0	0.0	-0.89154	-1.10367	
3258.0	0.0	-0.925	-1.08105	
3259.0	0.0	-0.95654	-1.05002	
3260.0	0.0	-0.98648	-1.02457	
3261.0	0.0	-1.01477	-0.99435	
3262.0	0.0	-1.04105	-0.97192	
3263.0	0.0	-1.06641	-0.94492	
3264.0	0.0	-1.09039	-0.9234	
3265.0	0.0	-1.11232	-0.89246	
3266.0	0.0	-1.13333	-0.85272	
3267.0	0.0	-1.15283	-0.80731	
3268.0	0.0	-1.17242	-0.74835	
3269.0	0.0	-1.18854	-0.6947	
3270.0	0.0	-1.20552	-0.63611	
3271.0	0.0	-1.22058	-0.58878	
3272.0	0.0	-1.23615	-0.56287	
3273.0	0.0	-1.24658	-0.52588	
3274.0	0.0	-1.25757	-0.49969	
3275.0	0.0	-1.25615	-0.47369	
3276.0	0.0	-1.25235	-0.46637	
3277.0	0.0	-1.24274	-0.43359	
3278.0	0.0	-1.23656	-0.41071	
3279.0	0.0	-1.22845	-0.36603	
3280.0	0.0	-1.22191	-0.32648	
3281.0	0.0	-1.21106	-0.2883	
3282.0	0.0	-1.20465	-0.24976	
3283.0	0.0	-1.19147	-0.23053	
3284.0	0.0	-1.17599	-0.21643	
3285.0	0.0	-1.15082	-0.19446	
3286.0	0.0	-1.12637	-0.17395	
3287.0	0.0	-1.10046	-0.15546	
3288.0	0.0	-1.07941	-0.14117	
3289.0	0.0	-1.05396	-0.11929	
3290.0	0.0	-1.0275	-0.10712	
3291.0	0.0	-0.9906	-0.08716	
3292.0	0.0	-0.95096	-0.07993	
3293.0	0.0	-0.90417	-0.05383	
3294.0	0.0	-0.85968	-0.04321	
3295.0	0.0	-0.81152	-0.03552	
3296.0	0.0	-0.76904	-0.03424	
3297.0	0.0	-0.72565	-0.0108	
3298.0	0.0	-0.68646	-0.00348	
3299.0	0.0	-0.64233	0.00366	
3300.0	0.0	-0.59839	-0.00385	
3301.0	0.0	-0.54895	0.00311	
3302.0	0.0	-0.50226	-0.00476	
3303.0	0.0	-0.45291	-0.01208	
3304.0	0.0	-0.41016	-0.01575	
3305.0	0.0	-0.36914	-0.02312	
3306.0	0.0	-0.33582	-0.01776	
3307.0	0.0	-0.30231	-0.01373	
3308.0	0.0	-0.27191	-0.01318	
3309.0	0.0	-0.23621	-0.01556	
3310.0	0.0	-0.20393	-0.02014	
3311.0	0.0	-0.16699	-0.01923	
3312.0	0.0	-0.1333	-0.02875	
3313.0	0.0	-0.09851	-0.03488	
3314.0	0.0	-0.06949	-0.04688	
3315.0	0.0	-0.03735	-0.04523	
3316.0	0.0	-0.00806	-0.05438	
3317.0	0.0	0.026	-0.05273	
3318.0	0.0	0.05878	-0.05827	
3319.0	0.0	0.09412	-0.06097	
3320.0	0.0	0.12634	-0.06812	
3321.0	0.0	0.16077	-0.07333	
3322.0	0.0	0.1886	-0.08441	
3323.0	0.0	0.2168	-0.09375	
3324.0	0.0	0.23676	-0.10968	
3325.0	0.0	0.25726	-0.12057	
3326.0	0.0	0.27356	-0.13623	
3327.0	0.0	0.2926	-0.14227	
3328.0	0.0	0.30927	-0.14941	
3329.0	0.0	0.33051	-0.14117	
3330.0	0.0	0.34863	-0.14447	
3331.0	0.0	0.3717	-0.14648	
3332.0	0.0	0.3902	-0.14685	
3333.0	0.0	0.41089	-0.15793	
3334.0	0.0	0.42444	-0.16901	
3335.0	0.0	0.43799	-0.16754	
3336.0	0.0	0.44421	-0.16461	
3337.0	0.0	0.45209	-0.15912	
3338.0	0.0	0.45575	-0.15202	
3339.0	0.0	0.46143	-0.14264	
3340.0	0.0	0.46143	-0.12726	
3341.0	0.0	0.46362	-0.11243	
3342.0	0.0	0.45959	-0.11572	
3343.0	0.0	0.4552	-0.10785	
3344.0	0.0	0.44476	-0.11453	
3345.0	0.0	0.43671	-0.10675	
3346.0	0.0	0.42664	-0.09302	
3347.0	0.0	0.4259	-0.07654	
3348.0	0.0	0.4281	-0.05237	
3349.0	0.0	0.44275	-0.02985	
3350.0	0.0	0.45886	0.00165	
3351.0	0.0	0.48193	0.02362	
3352.0	0.0	0.49988	0.04102	
3353.0	0.0	0.52295	0.05585	
3354.0	0.0	0.54382	0.06903	
3355.0	0.0	0.57129	0.08441	
3356.0	0.0	0.59692	0.09302	
3357.0	0.0	0.62952	0.11206	
3358.0	0.0	0.66284	0.11737	
3359.0	0.0	0.70239	0.12488	
3360.0	0.0	0.74158	0.12836	
3361.0	0.0	0.78333	0.13074	
3362.0	0.0	0.82178	0.12579	
3363.0	0.0	0.85986	0.12579	
3364.0	0.0	0.89117	0.12323	
3365.0	0.0	0.92432	0.12122	
3366.0	0.0	0.95215	0.12836	
3367.0	0.0	0.98035	0.12872	
3368.0	0.0	1.00269	0.12332	
3369.0	0.0	1.02722	0.12598	
3370.0	0.0	1.04517	0.11499	
3371.0	0.0	1.06165	0.12918	
3372.0	0.0	1.0686	0.13	
3373.0	0.0	1.06714	0.12451	
3374.0	0.0	1.03931	0.11938	
3375.0	0.0	0.99316	0.11609	
3376.0	0.0	0.94318	0.10822	
3377.0	0.0	0.90894	0.10089	
3378.0	0.0	0.8877	0.10455	
3379.0	0.0	0.88843	0.11206	
3380.0	0.0	0.90015	0.10474	
3381.0	0.0	0.93549	0.10986	
3382.0	0.0	0.97705	0.09027	
3383.0	0.0	1.01587	0.07196	
3384.0	0.0	1.05084	0.05566	
3385.0	0.0	1.08105	0.04962	
3386.0	0.0	1.10596	0.05859	
3387.0	0.0	1.12866	0.08221	
3388.0	0.0	1.1499	0.11829	
3389.0	0.0	1.16968	0.17102	
3390.0	0.0	1.18652	0.2124	
3391.0	0.0	1.20428	0.25342	
3392.0	0.0	1.22113	0.30981	
3393.0	0.0	1.23779	0.349	
3394.0	0.0	1.24658	0.39441	
3395.0	0.0	1.25647	0.44165	
3396.0	0.0	1.2583	0.47717	
3397.0	0.0	1.26562	0.49713	
3398.0	0.0	1.26782	0.51123	
3399.0	0.0	1.27588	0.54675	
3400.0	0.0	1.27771	0.57861	
3401.0	0.0	1.28394	0.61981	
3402.0	0.0	1.28687	0.66028	
3403.0	0.0	1.29858	0.70605	
3404.0	0.0	1.31104	0.73846	
3405.0	0.0	1.3222	0.77032	
3406.0	0.0	1.33228	0.79266	
3407.0	0.0	1.3418	0.81262	
3408.0	0.0	1.34985	0.81793	
3409.0	0.0	1.35864	0.82526	
3410.0	0.0	1.35974	0.82324	
3411.0	0.0	1.36176	0.80823	
3412.0	0.0	1.36011	0.79633	
3413.0	0.0	1.3656	0.79138	
3414.0	0.0	1.36963	0.78479	
3415.0	0.0	1.37695	0.776	
3416.0	0.0	1.37585	0.76263	
3417.0	0.0	1.38208	0.74084	
3418.0	0.0	1.39014	0.72382	
3419.0	0.0	1.39746	0.69635	
3420.0	0.0	1.40369	0.67181	
3421.0	0.0	1.40845	0.65607	
3422.0	0.0	1.41467	0.64178	
3423.0	0.0	1.41943	0.64124	
3424.0	0.0	1.42419	0.63922	
3425.0	0.0	1.42859	0.65753	
3426.0	0.0	1.43335	0.66925	
3427.0	0.0	1.43738	0.70386	
3428.0	0.0	1.44067	0.74817	
3429.0	0.0	1.4436	0.79102	
3430.0	0.0	1.4469	0.8335	
3431.0	0.0	1.45056	0.87634	
3432.0	0.0	1.45239	0.90637	
3433.0	0.0	1.45605	0.93713	
3434.0	0.0	1.44653	0.96606	
3435.0	0.0	1.4469	0.99701	
3436.0	0.0	1.45093	1.02466	
3437.0	0.0	1.45496	1.05103	
3438.0	0.0	1.45166	1.0708	
3439.0	0.0	1.45203	1.09131	
3440.0	0.0	1.45422	1.10229	
3441.0	0.0	1.45789	1.10889	
3442.0	0.0	1.45972	1.1098	
3443.0	0.0	1.46283	1.10413	
3444.0	0.0	1.46448	1.09277	
3445.0	0.0	1.46649	1.0741	
3446.0	0.0	1.46924	1.04645	
3447.0	0.0	1.4707	1.02045	
3448.0	0.0	1.46631	0.98767	
3449.0	0.0	1.46356	0.95618	
3450.0	0.0	1.45129	0.92249	
3451.0	0.0	1.43811	0.88605	
3452.0	0.0	1.41797	0.83917	
3453.0	0.0	1.40039	0.78882	
3454.0	0.0	1.37292	0.72931	
3455.0	0.0	1.34546	0.67218	
3456.0	0.0	1.30664	0.62329	
3457.0	0.0	1.26782	0.58626	
3458.0	0.0	1.21838	0.54382	
3459.0	0.0	1.16565	0.51004	
3460.0	0.0	1.10486	0.47424	
3461.0	0.0	1.04443	0.43744	
3462.0	0.0	0.97595	0.39876	
3463.0	0.0	0.91077	0.36292	
3464.0	0.0	0.84375	0.34131	
3465.0	0.0	0.78516	0.32959	
3466.0	0.0	0.72839	0.3176	
3467.0	0.0	0.68408	0.30579	
3468.0	0.0	0.63867	0.29041	
3469.0	0.0	0.5918	0.27795	
3470.0	0.0	0.5365	0.2666	
3471.0	0.0	0.48303	0.26385	
3472.0	0.0	0.42499	0.26477	
3473.0	0.0	0.36694	0.27448	
3474.0	0.0	0.30469	0.28583	
3475.0	0.0	0.25085	0.30396	
3476.0	0.0	0.20068	0.3175	
3477.0	0.0	0.16003	0.34808	
3478.0	0.0	0.12122	0.3642	
3479.0	0.0	0.08405	0.40631	
3480.0	0.0	0.04047	0.44202	
3481.0	0.0	-0.00073	0.45996	
3482.0	0.0	-0.04248	0.49512	
3483.0	0.0	-0.07764	0.50574	
3484.0	0.0	-0.11572	0.51324	
3485.0	0.0	-0.14941	0.51526	
3486.0	0.0	-0.18347	0.50116	
3487.0	0.0	-0.2146	0.50684	
3488.0	0.0	-0.25232	0.50757	
3489.0	0.0	-0.28436	0.52698	
3490.0	0.0	-0.31256	0.52991	
3491.0	0.0	-0.32574	0.53467	
3492.0	0.0	-0.336	0.54968	
3493.0	0.0	-0.3371	0.5636	
3494.0	0.0	-0.33728	0.58228	
3495.0	0.0	-0.33142	0.61121	
3496.0	0.0	-0.32721	0.64783	
3497.0	0.0	-0.31824	0.68958	
3498.0	0.0	-0.30908	0.72784	
3499.0	0.0	-0.29315	0.75732	
3500.0	0.0	-0.27887	0.81903	
3501.0	0.0	-0.26056	0.8562	
3502.0	0.0	-0.24408	0.8968	
3503.0	0.0	-0.22375	0.93182	
3504.0	0.0	-0.20508	0.96661	
3505.0	0.0	-0.18402	1.00507	
3506.0	0.0	-0.16608	1.02502	
3507.0	0.0	-0.14575	1.05981	
3508.0	0.0	-0.13074	1.08691	
3509.0	0.0	-0.11169	1.09918	
3510.0	0.0	-0.09595	1.13159	
3511.0	0.0	-0.07471	1.15356	
3512.0	0.0	-0.05548	1.1722	
3513.0	0.0	-0.03186	1.19366	
3514.0	0.0	-0.01282	1.20593	
3515.0	0.0	0.00696	1.20735	
3516.0	0.0	0.01794	1.24365	
3517.0	0.0	0.02637	1.25317	
3518.0	0.0	0.02417	1.27295	
3519.0	0.0	0.01923	1.28577	
3520.0	0.0	0.00732	1.29749	
3521.0	0.0	-0.00348	1.31177	
3522.0	0.0	-0.02197	1.32166	
3523.0	0.0	-0.03809	1.32843	
3524.0	0.0	-0.05823	1.33081	
3525.0	0.0	-0.07507	1.33356	
3526.0	0.0	-0.09613	1.34766	
3527.0	0.0	-0.11389	1.34381	
3528.0	0.0	-0.1366	1.33466	
3529.0	0.0	-0.15564	1.30939	
3530.0	0.0	-0.17889	1.2962	
3531.0	0.0	-0.19885	1.28174	
3532.0	0.0	-0.22119	1.26746	
3533.0	0.0	-0.23694	1.23665	
3534.0	0.0	-0.25269	1.25208	
3535.0	0.0	-0.26147	1.24823	
3536.0	0.0	-0.27274	1.23285	
3537.0	0.0	-0.28033	1.22479	
3538.0	0.0	-0.29315	1.21198	
3539.0	0.0	-0.30396	1.19843	
3540.0	0.0	-0.31824	1.18744	
3541.0	0.0	-0.32611	1.15869	
3542.0	0.0	-0.3382	1.1651	
3543.0	0.0	-0.3457	1.13562	
3544.0	0.0	-0.35669	1.14606	
3545.0	0.0	-0.36621	1.13672	
3546.0	0.0	-0.37939	1.12532	
3547.0	0.0	-0.38965	1.11548	
3548.0	0.0	-0.40045	1.10413	
3549.0	0.0	-0.40448	1.09515	
3550.0	0.0	-0.41107	1.07373	
3551.0	0.0	-0.41418	1.0708	
3552.0	0.0	-0.42261	1.05835	
3553.0	0.0	-0.42755	1.04993	
3554.0	0.0	-0.43689	1.01715	
3555.0	0.0	-0.44348	1.0351	
3556.0	0.0	-0.45461	1.02539	
3557.0	0.0	-0.46289	1.02246	
3558.0	0.0	-0.47717	1.01111	
3559.0	0.0	-0.48999	1.01495	
3560.0	0.0	-0.50793	1.01495	
3561.0	0.0	-0.52423	1.01569	
3562.0	0.0	-0.5451	1.00813	
3563.0	0.0	-0.56433	0.97375	
3564.0	0.0	-0.58878	0.97064	
3565.0	0.0	-0.61102	0.9884	
3566.0	0.0	-0.63959	0.97705	
3567.0	0.0	-0.66541	0.97266	
3568.0	0.0	-0.69635	0.97522	
3569.0	0.0	-0.72491	0.96844	
3570.0	0.0	-0.75787	0.96808	
3571.0	0.0	-0.78882	0.9624	
3572.0	0.0	-0.82425	0.93782	
3573.0	0.0	-0.85767	0.95251	
3574.0	0.0	-0.89282	0.93604	
3575.0	0.0	-0.9234	0.93713	
3576.0	0.0	-0.95526	0.92413	
3577.0	0.0	-0.98199	0.91663	
3578.0	0.0	-1.01028	0.88989	
3579.0	0.0	-1.03253	0.8985	
3580.0	0.0	-1.05826	0.88623	
3581.0	0.0	-1.08151	0.88202	
3582.0	0.0	-1.10486	0.87479	
3583.0	0.0	-1.12427	0.85712	
3584.0	0.0	-1.14514	0.84375	
3585.0	0.0	-1.16176	0.82928	
3586.0	0.0	-1.18066	0.79047	
3587.0	0.0	-1.19394	0.802	
3588.0	0.0	-1.21024	0.78625	
3589.0	0.0	-1.22241	0.7674	
3590.0	0.0	-1.2377	0.75696	
3591.0	0.0	-1.24814	0.74432	
3592.0	0.0	-1.26196	0.70624	
3593.0	0.0	-1.27135	0.71466	
3594.0	0.0	-1.28403	0.71265	
3595.0	0.0	-1.29213	0.69946	
3596.0	0.0	-1.30371	0.68811	
3597.0	0.0	-1.31058	0.67877	
3598.0	0.0	-1.32047	0.66568	
3599.0	0.0	-1.32605	0.64856	
3600.0	0.0	-1.33566	0.63556	
3601.0	0.0	-1.34006	0.62366	
3602.0	0.0	-1.34894	0.60791	
3603.0	0.0	-1.35352	0.59491	
3604.0	0.0	-1.36203	0.5755	
3605.0	0.0	-1.36551	0.56982	
3606.0	0.0	-1.37297	0.55939	
3607.0	0.0	-1.37466	0.5451	
3608.0	0.0	-1.38158	0.54236	
3609.0	0.0	-1.38368	0.53027	
3610.0	0.0	-1.3905	0.51141	
3611.0	0.0	-1.39096	0.50409	
3612.0	0.0	-1.39549	0.47479	
3613.0	0.0	-1.39517	0.48395	
3614.0	0.0	-1.40012	0.47186	
3615.0	0.0	-1.40039	0.46143	
3616.0	0.0	-1.4057	0.43762	
3617.0	0.0	-1.40648	0.43286	
3618.0	0.0	-1.41147	0.41602	
3619.0	0.0	-1.41197	0.38965	
3620.0	0.0	-1.41701	0.38141	
3621.0	0.0	-1.41714	0.36804	
3622.0	0.0	-1.42181	0.3609	
3623.0	0.0	-1.42159	0.35083	
3624.0	0.0	-1.42598	0.33051	
3625.0	0.0	-1.4252	0.31567	
3626.0	0.0	-1.42799	0.30872	
3627.0	0.0	-1.42621	0.29535	
3628.0	0.0	-1.42987	0.28381	
3629.0	0.0	-1.42905	0.25269	
3630.0	0.0	-1.43317	0.25946	
3631.0	0.0	-1.43225	0.23859	
3632.0	0.0	-1.43546	0.22906	
3633.0	0.0	-1.43326	0.21405	
3634.0	0.0	-1.43454	0.19482	
3635.0	0.0	-1.42969	0.18073	
3636.0	0.0	-1.42877	0.16736	
3637.0	0.0	-1.42145	0.15308	
3638.0	0.0	-1.4171	0.14392	
3639.0	0.0	-1.40758	0.1311	
3640.0	0.0	-1.40039	0.09778	
3641.0	0.0	-1.38803	0.10464	
3642.0	0.0	-1.3829	0.09119	
3643.0	0.0	-1.37462	0.08002	
3644.0	0.0	-1.36986	0.06281	
3645.0	0.0	-1.3586	0.03845	
3646.0	0.0	-1.34967	0.01648	
3647.0	0.0	-1.33662	-0.02161	
3648.0	0.0	-1.32898	-0.02673	
3649.0	0.0	-1.31671	-0.0575	
3650.0	0.0	-1.30893	-0.05786	
3651.0	0.0	-1.2957	-0.06372	
3652.0	0.0	-1.28595	-0.08405	
3653.0	0.0	-1.27094	-0.10657	
3654.0	0.0	-1.26064	-0.11526	
3655.0	0.0	-1.24704	-0.13184	
3656.0	0.0	-1.23834	-0.1485	
3657.0	0.0	-1.22644	-0.1604	
3658.0	0.0	-1.2204	-0.17963	
3659.0	0.0	-1.20941	-0.19574	
3660.0	0.0	-1.203	-0.21515	
3661.0	0.0	-1.19325	-0.21313	
3662.0	0.0	-1.18771	-0.24353	
3663.0	0.0	-1.17751	-0.2384	
3664.0	0.0	-1.17169	-0.25122	
3665.0	0.0	-1.16162	-0.2699	
3666.0	0.0	-1.15714	-0.28491	
3667.0	0.0	-1.1488	-0.28217	
3668.0	0.0	-1.14409	-0.29736	
3669.0	0.0	-1.13429	-0.2915	
3670.0	0.0	-1.12811	-0.31018	
3671.0	0.0	-1.11795	-0.30615	
3672.0	0.0	-1.11053	-0.31622	
3673.0	0.0	-1.09767	-0.32236	
3674.0	0.0	-1.08847	-0.32922	
3675.0	0.0	-1.07446	-0.34277	
3676.0	0.0	-1.06494	-0.3501	
3677.0	0.0	-1.0508	-0.3598	
3678.0	0.0	-1.04114	-0.35138	
3679.0	0.0	-1.02722	-0.36694	
3680.0	0.0	-1.01761	-0.3631	
3681.0	0.0	-1.00378	-0.36255	
3682.0	0.0	-0.99536	-0.37134	
3683.0	0.0	-0.98341	-0.3772	
3684.0	0.0	-0.97586	-0.37134	
3685.0	0.0	-0.96423	-0.37532	
3686.0	0.0	-0.95755	-0.37683	
3687.0	0.0	-0.94711	-0.3858	
3688.0	0.0	-0.94116	-0.38553	
3689.0	0.0	-0.93091	-0.38196	
3690.0	0.0	-0.92487	-0.38452	
3691.0	0.0	-0.91406	-0.37903	
3692.0	0.0	-0.90692	-0.38525	
3693.0	0.0	-0.8941	-0.37427	
3694.0	0.0	-0.88458	-0.36749	
3695.0	0.0	-0.86884	-0.36777	
3696.0	0.0	-0.85767	-0.36255	
3697.0	0.0	-0.841	-0.35834	
3698.0	0.0	-0.828	-0.36731	
3699.0	0.0	-0.80928	-0.35431	
3700.0	0.0	-0.79376	-0.35669	
3701.0	0.0	-0.77271	-0.34698	
3702.0	0.0	-0.75568	-0.35156	
3703.0	0.0	-0.73627	-0.33362	
3704.0	0.0	-0.72144	-0.32831	
3705.0	0.0	-0.70093	-0.33371	
3706.0	0.0	-0.68408	-0.33032	
3707.0	0.0	-0.66229	-0.32941	
3708.0	0.0	-0.64526	-0.34039	
3709.0	0.0	-0.62402	-0.33105	
3710.0	0.0	-0.60645	-0.32831	
3711.0	0.0	-0.58502	-0.3111	
3712.0	0.0	-0.56799	-0.31329	
3713.0	0.0	-0.54565	-0.3002	
3714.0	0.0	-0.52863	-0.28821	
3715.0	0.0	-0.50812	-0.28107	
3716.0	0.0	-0.49237	-0.27356	
3717.0	0.0	-0.47314	-0.2645	
3718.0	0.0	-0.45877	-0.26248	
3719.0	0.0	-0.44055	-0.25232	
3720.0	0.0	-0.42792	-0.24902	
3721.0	0.0	-0.41144	-0.2417	
3722.0	0.0	-0.39935	-0.24591	
3723.0	0.0	-0.38379	-0.23108	
3724.0	0.0	-0.3728	-0.22797	
3725.0	0.0	-0.35724	-0.23053	
3726.0	0.0	-0.34552	-0.22174	
3727.0	0.0	-0.32996	-0.21625	
3728.0	0.0	-0.31934	-0.22119	
3729.0	0.0	-0.30469	-0.21021	
3730.0	0.0	-0.29407	-0.21405	
3731.0	0.0	-0.27759	-0.21002	
3732.0	0.0	-0.2655	-0.20343	
3733.0	0.0	-0.24994	-0.19702	
3734.0	0.0	-0.23804	-0.20032	
3735.0	0.0	-0.22156	-0.19025	
3736.0	0.0	-0.20837	-0.18951	
3737.0	0.0	-0.19116	-0.19006	
3738.0	0.0	-0.17798	-0.18567	
3739.0	0.0	-0.16113	-0.17908	
3740.0	0.0	-0.14886	-0.1756	
3741.0	0.0	-0.1322	-0.17084	
3742.0	0.0	-0.11975	-0.16663	
3743.0	0.0	-0.10272	-0.1582	
3744.0	0.0	-0.09009	-0.14923	
3745.0	0.0	-0.07306	-0.14612	
3746.0	0.0	-0.06152	-0.13513	
3747.0	0.0	-0.04486	-0.12863	
3748.0	0.0	-0.03241	-0.13055	
3749.0	0.0	-0.01538	-0.12424	
3750.0	0.0	-0.0033	-0.11755	
3751.0	0.0	0.01355	-0.10931	
3752.0	0.0	0.026	-0.1084	
3753.0	0.0	0.04413	-0.09448	
3754.0	0.0	0.0575	-0.0932	
3755.0	0.0	0.07654	-0.08478	
3756.0	0.0	0.09119	-0.07874	
3757.0	0.0	0.11133	-0.06976	
3758.0	0.0	0.12799	-0.06024	
3759.0	0.0	0.15125	-0.04138	
3760.0	0.0	0.17377	-0.02728	
3761.0	0.0	0.2049	-0.00201	
3762.0	0.0	0.23511	0.02362	
3763.0	0.0	0.27429	0.0575	
3764.0	0.0	0.31128	0.0921	
3765.0	0.0	0.35394	0.13806	
3766.0	0.0	0.39679	0.18109	
3767.0	0.0	0.44678	0.2254	
3768.0	0.0	0.49768	0.2666	
3769.0	0.0	0.55261	0.31256	
3770.0	0.0	0.60425	0.3512	
3771.0	0.0	0.65332	0.39661	
3772.0	0.0	0.69946	0.43542	
3773.0	0.0	0.74377	0.47461	
3774.0	0.0	0.78387	0.51031	
3775.0	0.0	0.82306	0.55188	
3776.0	0.0	0.85986	0.58621	
3777.0	0.0	0.89447	0.62292	
3778.0	0.0	0.92578	0.65657	
3779.0	0.0	0.95801	0.6958	
3780.0	0.0	0.98547	0.72601	
3781.0	0.0	1.01367	0.76025	
3782.0	0.0	1.03711	0.78836	
3783.0	0.0	1.06165	0.82013	
3784.0	0.0	1.08105	0.84448	
3785.0	0.0	1.10284	0.8736	
3786.0	0.0	1.11804	0.90033	
3787.0	0.0	1.13599	0.93109	
3788.0	0.0	1.14917	0.96057	
3789.0	0.0	1.16235	0.99152	
3790.0	0.0	1.16895	1.01514	
3791.0	0.0	1.17847	1.03949	
3792.0	0.0	1.18213	1.05872	
3793.0	0.0	1.18872	1.08051	
3794.0	0.0	1.18982	1.09497	
3795.0	0.0	1.19257	1.10394	
3796.0	0.0	1.19092	1.12262	
3797.0	0.0	1.19312	1.1391	
3798.0	0.0	1.19128	1.15118	
3799.0	0.0	1.19312	1.16638	
3800.0	0.0	1.19019	1.17133	
3801.0	0.0	1.18945	1.19238	
3802.0	0.0	1.18396	1.19989	
3803.0	0.0	1.18396	1.21289	
3804.0	0.0	1.17773	1.22076	
3805.0	0.0	1.17554	1.22754	
3806.0	0.0	1.16693	1.22955	
3807.0	0.0	1.16528	1.22388	
3808.0	0.0	1.15942	1.19934	
3809.0	0.0	1.15723	1.15869	
3810.0	0.0	1.14807	1.11346	
3811.0	0.0	1.14038	1.05029	
3812.0	0.0	1.12537	0.98895	
3813.0	0.0	1.11401	0.91919	
3814.0	0.0	1.09644	0.85052	
3815.0	0.0	1.08105	0.78094	
3816.0	0.0	1.05981	0.70184	
3817.0	0.0	1.04004	0.61908	
3818.0	0.0	1.0155	0.52808	
3819.0	0.0	0.99316	0.44128	
3820.0	0.0	0.96533	0.34918	
3821.0	0.0	0.94336	0.25928	
3822.0	0.0	0.91699	0.1593	
3823.0	0.0	0.89465	0.06931	
3824.0	0.0	0.86682	-0.01813	
3825.0	0.0	0.84302	-0.11179	
3826.0	0.0	0.81335	-0.20059	
3827.0	0.0	0.78772	-0.26752	
3828.0	0.0	0.76099	-0.34387	
3829.0	0.0	0.73956	-0.41711	
3830.0	0.0	0.71191	-0.47955	
3831.0	0.0	0.68848	-0.52309	
3832.0	0.0	0.66064	-0.57019	
3833.0	0.0	0.6394	-0.6205	
3834.0	0.0	0.61414	-0.67383	
3835.0	0.0	0.59473	-0.71008	
3836.0	0.0	0.57349	-0.74689	
3837.0	0.0	0.55737	-0.77316	
3838.0	0.0	0.53833	-0.80484	
3839.0	0.0	0.52295	-0.82022	
3840.0	0.0	0.50409	-0.84229	
3841.0	0.0	0.49054	-0.86389	
3842.0	0.0	0.47424	-0.87653	
3843.0	0.0	0.46326	-0.88843	
3844.0	0.0	0.44861	-0.88861	
3845.0	0.0	0.43799	-0.88989	
3846.0	0.0	0.42151	-0.89795	
3847.0	0.0	0.41089	-0.89008	
3848.0	0.0	0.39679	-0.88165	
3849.0	0.0	0.38855	-0.86755	
3850.0	0.0	0.37756	-0.8562	
3851.0	0.0	0.37152	-0.84119	
3852.0	0.0	0.36255	-0.82745	
3853.0	0.0	0.35852	-0.79468	
3854.0	0.0	0.35321	-0.77344	
3855.0	0.0	0.35468	-0.75659	
3856.0	0.0	0.35376	-0.7218	
3857.0	0.0	0.35925	-0.69868	
3858.0	0.0	0.362	-0.6796	
3859.0	0.0	0.37006	-0.64398	
3860.0	0.0	0.37097	-0.6134	
3861.0	0.0	0.37628	-0.58484	
3862.0	0.0	0.37573	-0.54913	
3863.0	0.0	0.38049	-0.51544	
3864.0	0.0	0.38196	-0.50226	
3865.0	0.0	0.38892	-0.46999	
3866.0	0.0	0.39111	-0.4411	
3867.0	0.0	0.39844	-0.40842	
3868.0	0.0	0.40027	-0.375	
3869.0	0.0	0.40686	-0.34277	
3870.0	0.0	0.40906	-0.31293	
3871.0	0.0	0.41602	-0.28143	
3872.0	0.0	0.41895	-0.25031	
3873.0	0.0	0.42773	-0.2168	
3874.0	0.0	0.43103	-0.19281	
3875.0	0.0	0.43964	-0.15417	
3876.0	0.0	0.44385	-0.12616	
3877.0	0.0	0.45282	-0.09576	
3878.0	0.0	0.45575	-0.05548	
3879.0	0.0	0.46399	-0.02289	
3880.0	0.0	0.4671	0.0033	
3881.0	0.0	0.47314	0.03644	
3882.0	0.0	0.47388	0.06464	
3883.0	0.0	0.48047	0.08789	
3884.0	0.0	0.4823	0.11206	
3885.0	0.0	0.49036	0.1344	
3886.0	0.0	0.49512	0.15363	
3887.0	0.0	0.50555	0.1712	
3888.0	0.0	0.51233	0.1842	
3889.0	0.0	0.52515	0.1972	
3890.0	0.0	0.53394	0.20709	
3891.0	0.0	0.54858	0.21698	
3892.0	0.0	0.5592	0.22577	
3893.0	0.0	0.57495	0.23639	
3894.0	0.0	0.58594	0.24591	
3895.0	0.0	0.60242	0.25662	
3896.0	0.0	0.61359	0.26532	
3897.0	0.0	0.62988	0.27704	
3898.0	0.0	0.64124	0.28638	
3899.0	0.0	0.65735	0.2948	
3900.0	0.0	0.66943	0.30066	
3901.0	0.0	0.68555	0.30817	
3902.0	0.0	0.69727	0.30725	
3903.0	0.0	0.71338	0.30615	
3904.0	0.0	0.72711	0.30396	
3905.0	0.0	0.74561	0.31055	
3906.0	0.0	0.75934	0.31165	
3907.0	0.0	0.77856	0.31714	
3908.0	0.0	0.79175	0.32007	
3909.0	0.0	0.80933	0.32996	
3910.0	0.0	0.82196	0.32959	
3911.0	0.0	0.83862	0.336	
3912.0	0.0	0.85181	0.33875	
3913.0	0.0	0.86865	0.34598	
3914.0	0.0	0.8811	0.34973	
3915.0	0.0	0.89648	0.35468	
3916.0	0.0	0.90564	0.35815	
3917.0	0.0	0.91846	0.37061	
3918.0	0.0	0.92578	0.37738	
3919.0	0.0	0.93713	0.38855	
3920.0	0.0	0.94373	0.39734	
3921.0	0.0	0.95581	0.41272	
3922.0	0.0	0.96204	0.42352	
3923.0	0.0	0.97266	0.44559	
3924.0	0.0	0.97998	0.4552	
3925.0	0.0	0.9917	0.47168	
3926.0	0.0	1.00012	0.48486	
3927.0	0.0	1.01367	0.49832	
3928.0	0.0	1.02026	0.5061	
3929.0	0.0	1.03143	0.52075	
3930.0	0.0	1.03784	0.52753	
3931.0	0.0	1.0481	0.54108	
3932.0	0.0	1.05286	0.5528	
3933.0	0.0	1.06311	0.56836	
3934.0	0.0	1.06805	0.58429	
3935.0	0.0	1.07739	0.60278	
3936.0	0.0	1.08032	0.62	
3937.0	0.0	1.08911	0.63629	
3938.0	0.0	1.09094	0.64984	
3939.0	0.0	1.09735	0.66669	
3940.0	0.0	1.10028	0.68005	
3941.0	0.0	1.10779	0.69562	
3942.0	0.0	1.11108	0.70789	
3943.0	0.0	1.11841	0.72125	
3944.0	0.0	1.1228	0.73334	
3945.0	0.0	1.13269	0.74707	
3946.0	0.0	1.13672	0.75879	
3947.0	0.0	1.14661	0.77216	
3948.0	0.0	1.1499	0.78461	
3949.0	0.0	1.15833	0.79651	
3950.0	0.0	1.16107	0.8075	
3951.0	0.0	1.16675	0.81885	
3952.0	0.0	1.16785	0.82452	
3953.0	0.0	1.17554	0.83606	
3954.0	0.0	1.17664	0.84338	
3955.0	0.0	1.18286	0.85382	
3956.0	0.0	1.18506	0.86005	
3957.0	0.0	1.19275	0.87067	
3958.0	0.0	1.19458	0.87506	
3959.0	0.0	1.20044	0.88037	
3960.0	0.0	1.2019	0.88202	
3961.0	0.0	1.20667	0.88788	
3962.0	0.0	1.20667	0.89044	
3963.0	0.0	1.21179	0.89539	
3964.0	0.0	1.21124	0.8996	
3965.0	0.0	1.21582	0.90912	
3966.0	0.0	1.21472	0.91626	
3967.0	0.0	1.21802	0.92377	
3968.0	0.0	1.21582	0.93237	
3969.0	0.0	1.21857	0.93933	
3970.0	0.0	1.21582	0.94061	
3971.0	0.0	1.21747	0.94739	
3972.0	0.0	1.21326	0.95435	
3973.0	0.0	1.21399	0.96021	
3974.0	0.0	1.20868	0.96295	
3975.0	0.0	1.20923	0.96423	
3976.0	0.0	1.2041	0.96863	
3977.0	0.0	1.20557	0.97119	
3978.0	0.0	1.20337	0.97229	
3979.0	0.0	1.20557	0.97339	
3980.0	0.0	1.20337	0.97394	
3981.0	0.0	1.20703	0.9765	
3982.0	0.0	1.2052	0.97412	
3983.0	0.0	1.20923	0.9743	
3984.0	0.0	1.21088	0.96405	
3985.0	0.0	1.21875	0.96066	
3986.0	0.0	1.22095	0.95142	
3987.0	0.0	1.22864	0.94666	
3988.0	0.0	1.23029	0.9364	
3989.0	0.0	1.23669	0.93622	
3990.0	0.0	1.23779	0.93036	
3991.0	0.0	1.2464	0.92651	
3992.0	0.0	1.24841	0.92194	
3993.0	0.0	1.25537	0.91992	
3994.0	0.0	1.25684	0.91626	
3995.0	0.0	1.26306	0.91425	
3996.0	0.0	1.26379	0.90747	
3997.0	0.0	1.27075	0.90271	
3998.0	0.0	1.27185	0.89648	
3999.0	0.0	1.27917	0.89246	
4000.0	0.0	1.27991	0.88623	
4001.0	0.0	1.28687	0.88293	
4002.0	0.0	1.28723	0.87854	
4003.0	0.0	1.29199	0.87634	
4004.0	0.0	1.29126	0.86993	
4005.0	0.0	1.29712	0.86481	
4006.0	0.0	1.29712	0.85419	
4007.0	0.0	1.30151	0.85016	
4008.0	0.0	1.30005	0.841	
4009.0	0.0	1.30554	0.83551	
4010.0	0.0	1.30408	0.82343	
4011.0	0.0	1.30737	0.8161	
4012.0	0.0	1.30463	0.80438	
4013.0	0.0	1.30847	0.79651	
4014.0	0.0	1.30664	0.78516	
4015.0	0.0	1.30737	0.77802	
4016.0	0.0	1.30371	0.76721	
4017.0	0.0	1.30664	0.76062	
4018.0	0.0	1.30115	0.74908	
4019.0	0.0	1.30225	0.73938	
4020.0	0.0	1.29785	0.724	
4021.0	0.0	1.29785	0.71173	
4022.0	0.0	1.29272	0.70056	
4023.0	0.0	1.29419	0.68958	
4024.0	0.0	1.28888	0.67694	
4025.0	0.0	1.29199	0.66467	
4026.0	0.0	1.28833	0.65643	
4027.0	0.0	1.29456	0.63959	
4028.0	0.0	1.29639	0.62677	
4029.0	0.0	1.30646	0.60553	
4030.0	0.0	1.31451	0.59344	
4031.0	0.0	1.32806	0.56763	
4032.0	0.0	1.3363	0.54236	
4033.0	0.0	1.34729	0.51782	
4034.0	0.0	1.35205	0.49915	
4035.0	0.0	1.36121	0.47351	
4036.0	0.0	1.36377	0.47095	
4037.0	0.0	1.37036	0.47369	
4038.0	0.0	1.37	0.50171	
4039.0	0.0	1.37329	0.54419	
4040.0	0.0	1.3689	0.60791	
4041.0	0.0	1.37	0.66357	
4042.0	0.0	1.3645	0.72107	
4043.0	0.0	1.3645	0.76849	
4044.0	0.0	1.35718	0.82013	
4045.0	0.0	1.35425	0.86188	
4046.0	0.0	1.34473	0.90266	
4047.0	0.0	1.3407	0.94061	
4048.0	0.0	1.32971	0.97174	
4049.0	0.0	1.32312	1.00269	
4050.0	0.0	1.31177	1.02704	
4051.0	0.0	1.30481	1.05798	
4052.0	0.0	1.29346	1.07831	
4053.0	0.0	1.28723	1.10266	
4054.0	0.0	1.27625	1.11511	
4055.0	0.0	1.26984	1.13507	
4056.0	0.0	1.25903	1.15778	
4057.0	0.0	1.25391	1.16858	
4058.0	0.0	1.24475	1.17993	
4059.0	0.0	1.23926	1.20392	
4060.0	0.0	1.2301	1.21729	
4061.0	0.0	1.22717	1.22552	
4062.0	0.0	1.22021	1.24091	
4063.0	0.0	1.21765	1.24695	
4064.0	0.0	1.20996	1.26892	
4065.0	0.0	1.2085	1.27533	
4066.0	0.0	1.20337	1.28687	
4067.0	0.0	1.20337	1.29822	
4068.0	0.0	1.19714	1.29987	
4069.0	0.0	1.19604	1.30573	
4070.0	0.0	1.19183	1.30737	
4071.0	0.0	1.19165	1.30316	
4072.0	0.0	1.18762	1.31282	
4073.0	0.0	1.18726	1.31946	
4074.0	0.0	1.18231	1.32312	
4075.0	0.0	1.1825	1.32935	
4076.0	0.0	1.17883	1.3407	
4077.0	0.0	1.18066	1.35022	
4078.0	0.0	1.17993	1.35516	
4079.0	0.0	1.1825	1.3645	
4080.0	0.0	1.18066	1.36963	
4081.0	0.0	1.18176	1.37109	
4082.0	0.0	1.17957	1.3678	
4083.0	0.0	1.17792	1.37842	
4084.0	0.0	1.17407	1.383	
4085.0	0.0	1.17297	1.38464	
4086.0	0.0	1.16785	1.38574	
4087.0	0.0	1.16455	1.3764	
4088.0	0.0	1.15759	1.38538	
4089.0	0.0	1.1543	1.38922	
4090.0	0.0	1.14624	1.38647	
4091.0	0.0	1.13965	1.39124	
4092.0	0.0	1.13123	1.38812	
4093.0	0.0	1.12445	1.38574	
4094.0	0.0	1.11328	1.38867	
4095.0	0.0	1.10376	1.38812	
4096.0	0.0	1.09149	1.37915	
4097.0	0.0	1.08105	1.38245	
4098.0	0.0	1.06824	1.37659	
4099.0	0.0	1.05688	1.37622	
4100.0	0.0	1.04407	1.36359	
4101.0	0.0	1.0329	1.3678	
4102.0	0.0	1.02063	1.35498	
4103.0	0.0	1.00964	1.35809	
4104.0	0.0	0.99774	1.3493	
4105.0	0.0	0.98657	1.34857	
4106.0	0.0	0.97412	1.34564	
4107.0	0.0	0.96387	1.34509	
4108.0	0.0	0.95215	1.34619	
4109.0	0.0	0.94226	1.33502	
4110.0	0.0	0.93091	1.34692	
4111.0	0.0	0.92084	1.34399	
4112.0	0.0	0.9082	1.34729	
4113.0	0.0	0.89868	1.34363	
4114.0	0.0	0.8877	1.34619	
4115.0	0.0	0.87854	1.34143	
4116.0	0.0	0.86719	1.34637	
4117.0	0.0	0.85858	1.3396	
4118.0	0.0	0.84869	1.33191	
4119.0	0.0	0.84119	1.34711	
4120.0	0.0	0.83167	1.34784	
4121.0	0.0	0.82507	1.33978	
4122.0	0.0	0.81757	1.32678	
4123.0	0.0	0.81299	1.33264	
4124.0	0.0	0.80786	1.31213	
4125.0	0.0	0.80621	1.32275	
4126.0	0.0	0.80273	1.31396	
4127.0	0.0	0.80109	1.30847	
4128.0	0.0	0.80054	1.30042	
4129.0	0.0	0.80237	1.29639	
4130.0	0.0	0.80273	1.29547	
4131.0	0.0	0.8064	1.28577	
4132.0	0.0	0.81189	1.28137	
4133.0	0.0	0.82013	1.26874	
4134.0	0.0	0.82471	1.27441	
4135.0	0.0	0.82855	1.27496	
4136.0	0.0	0.83167	1.26544	
4137.0	0.0	0.83643	1.2583	
4138.0	0.0	0.83972	1.24475	
4139.0	0.0	0.84412	1.23779	
4140.0	0.0	0.84741	1.22351	
4141.0	0.0	0.85144	1.20959	
4142.0	0.0	0.85437	1.21216	
4143.0	0.0	0.85876	1.21271	
4144.0	0.0	0.86334	1.20447	
4145.0	0.0	0.8703	1.20886	
4146.0	0.0	0.87451	1.19989	
4147.0	0.0	0.88037	1.20502	
4148.0	0.0	0.88293	1.19989	
4149.0	0.0	0.88678	1.18396	
4150.0	0.0	0.88806	1.1933	
4151.0	0.0	0.89154	1.19421	
4152.0	0.0	0.89209	1.19037	
4153.0	0.0	0.89319	1.18359	
4154.0	0.0	0.89172	1.18378	
4155.0	0.0	0.89282	1.1684	
4156.0	0.0	0.89081	1.17352	
4157.0	0.0	0.89099	1.16565	
4158.0	0.0	0.88843	1.16034	
4159.0	0.0	0.88477	1.15118	
4160.0	0.0	0.87891	1.15906	
4161.0	0.0	0.87634	1.15979	
4162.0	0.0	0.87195	1.16144	
4163.0	0.0	0.86975	1.14807	
4164.0	0.0	0.86536	1.15466	
4165.0	0.0	0.86096	1.15302	
4166.0	0.0	0.85712	1.14459	
4167.0	0.0	0.8551	1.13068	
4168.0	0.0	0.85144	1.1261	
4169.0	0.0	0.84851	1.12532	
4170.0	0.0	0.84448	1.12939	
4171.0	0.0	0.84082	1.12463	
4172.0	0.0	0.83606	1.1217	
4173.0	0.0	0.83203	1.11127	
4174.0	0.0	0.82727	1.11218	
4175.0	0.0	0.82288	1.10944	
4176.0	0.0	0.81592	1.11108	
4177.0	0.0	0.80896	1.10962	
4178.0	0.0	0.8009	1.11255	
4179.0	0.0	0.79431	1.12207	
4180.0	0.0	0.78589	1.11749	
4181.0	0.0	0.7804	1.12299	
4182.0	0.0	0.77417	1.1142	
4183.0	0.0	0.76941	1.1228	
4184.0	0.0	0.76465	1.12885	
4185.0	0.0	0.76318	1.125	
4186.0	0.0	0.76318	1.13983	
4187.0	0.0	0.76355	1.14331	
4188.0	0.0	0.76318	1.14917	
4189.0	0.0	0.76245	1.15906	
4190.0	0.0	0.76099	1.16382	
4191.0	0.0	0.75879	1.16492	
4192.0	0.0	0.75439	1.17059	
4193.0	0.0	0.7533	1.17682	
4194.0	0.0	0.75146	1.18579	
4195.0	0.0	0.75293	1.19916	
4196.0	0.0	0.75586	1.19513	
4197.0	0.0	0.76099	1.21234	
4198.0	0.0	0.7641	1.20538	
4199.0	0.0	0.76758	1.21454	
4200.0	0.0	0.7738	1.22095	
4201.0	0.0	0.78223	1.22443	
4202.0	0.0	0.78662	1.21948	
4203.0	0.0	0.79102	1.21619	
4204.0	0.0	0.79321	1.20996	
4205.0	0.0	0.79797	1.19843	
4206.0	0.0	0.80127	1.18671	
4207.0	0.0	0.8042	1.16785	
4208.0	0.0	0.80493	1.14807	
4209.0	0.0	0.80603	1.13599	
4210.0	0.0	0.80493	1.12024	
4211.0	0.0	0.80273	1.11328	
4212.0	0.0	0.79907	1.10889	
4213.0	0.0	0.79504	1.10596	
4214.0	0.0	0.78809	1.09131	
4215.0	0.0	0.78149	1.09534	
4216.0	0.0	0.776	1.08325	
4217.0	0.0	0.77161	1.06769	
4218.0	0.0	0.76703	1.03949	
4219.0	0.0	0.76263	1.03784	
4220.0	0.0	0.75623	1.02448	
4221.0	0.0	0.75	1.01605	
4222.0	0.0	0.74121	1.00909	
4223.0	0.0	0.73279	1.00085	
4224.0	0.0	0.72217	0.99426	
4225.0	0.0	0.71246	0.98163	
4226.0	0.0	0.69891	0.95911	
4227.0	0.0	0.68555	0.9245	
4228.0	0.0	0.6698	0.88678	
4229.0	0.0	0.65588	0.8421	
4230.0	0.0	0.64288	0.78442	
4231.0	0.0	0.62952	0.72034	
4232.0	0.0	0.6156	0.65332	
4233.0	0.0	0.60278	0.58063	
4234.0	0.0	0.58887	0.505	
4235.0	0.0	0.57935	0.4292	
4236.0	0.0	0.56964	0.35083	
4237.0	0.0	0.5636	0.27484	
4238.0	0.0	0.55627	0.2005	
4239.0	0.0	0.55225	0.12616	
4240.0	0.0	0.54675	0.05457	
4241.0	0.0	0.54199	-0.01868	
4242.0	0.0	0.53394	-0.09723	
4243.0	0.0	0.52515	-0.17377	
4244.0	0.0	0.51489	-0.24829	
4245.0	0.0	0.50537	-0.31229	
4246.0	0.0	0.49548	-0.39111	
4247.0	0.0	0.48505	-0.44806	
4248.0	0.0	0.47461	-0.50665	
4249.0	0.0	0.46381	-0.55664	
4250.0	0.0	0.4519	-0.61505	
