# OpenSignals Text File Format. Version 1
# {"00:07:80:4B:29:5A": {"position": 0, "device": "biosignalsplux", "device name": "00:07:80:4B:29:5A", "device connection": "/dev/tty.biosignalsplux-Bluetoot", "sampling rate": 100, "resolution": [16, 16], "firmware version": 776, "comments": "", "keywords": "", "mode": 0, "sync interval": 2, "date": "2022-5-2", "time": "14:58:10.563", "channels": [1, 2], "sensor": ["RESPIRATION", "RESPIRATION"], "label": ["CH1", "CH2"], "column": ["nSeq", "DI", "CH1", "CH2"], "special": [{"SpO2": [80, 40, 5, 4, 3, 3]}, {"SpO2": [80, 40, 5, 4, 3, 3]}, {"SpO2": [80, 40, 5, 4, 3, 3]}, {"SpO2": [80, 40, 5, 4, 3, 3]}, {"SpO2": [80, 40, 5, 4, 3, 3]}, {"SpO2": [80, 40, 5, 4, 3, 3]}, {"SpO2": [80, 40, 5, 4, 3, 3]}, {"SpO2": [80, 40, 5, 4, 3, 3]}], "digital IO": [0, 1], "sleeve color": ["red", ""], "convertedValues": 1}}
# EndOfHeader
0.0	0.0	0.51233	-0.04156	
1.0	0.0	0.50574	-0.04321	
2.0	0.0	0.49896	-0.04724	
3.0	0.0	0.49402	-0.04156	
4.0	0.0	0.48962	-0.04852	
5.0	0.0	0.48596	-0.04907	
6.0	0.0	0.48322	-0.06152	
7.0	0.0	0.48157	-0.06537	
8.0	0.0	0.48047	-0.06738	
9.0	0.0	0.4801	-0.07526	
10.0	0.0	0.479	-0.07617	
11.0	0.0	0.47626	-0.07635	
12.0	0.0	0.47205	-0.08167	
13.0	0.0	0.46802	-0.07965	
14.0	0.0	0.46326	-0.08423	
15.0	0.0	0.45941	-0.0986	
16.0	0.0	0.4574	-0.10071	
17.0	0.0	0.45557	-0.09393	
18.0	0.0	0.4519	-0.10272	
19.0	0.0	0.44788	-0.09686	
20.0	0.0	0.44348	-0.09027	
21.0	0.0	0.43835	-0.09833	
22.0	0.0	0.43469	-0.09302	
23.0	0.0	0.4314	-0.09265	
24.0	0.0	0.4292	-0.0899	
25.0	0.0	0.4292	-0.08862	
26.0	0.0	0.43158	-0.09064	
27.0	0.0	0.43707	-0.09229	
28.0	0.0	0.44385	-0.08899	
29.0	0.0	0.45264	-0.08734	
30.0	0.0	0.46252	-0.08185	
31.0	0.0	0.47333	-0.07599	
32.0	0.0	0.4845	-0.06482	
33.0	0.0	0.49731	-0.06244	
34.0	0.0	0.50903	-0.05713	
35.0	0.0	0.52185	-0.05328	
36.0	0.0	0.53412	-0.052	
37.0	0.0	0.54565	-0.0379	
38.0	0.0	0.55682	-0.04193	
39.0	0.0	0.56799	-0.03827	
40.0	0.0	0.57861	-0.03607	
41.0	0.0	0.58813	-0.03809	
42.0	0.0	0.59729	-0.03424	
43.0	0.0	0.60516	-0.03973	
44.0	0.0	0.6123	-0.03607	
45.0	0.0	0.6189	-0.03479	
46.0	0.0	0.62549	-0.03351	
47.0	0.0	0.63281	-0.04688	
48.0	0.0	0.63977	-0.04706	
49.0	0.0	0.64783	-0.04175	
50.0	0.0	0.65442	-0.04248	
51.0	0.0	0.6601	-0.02747	
52.0	0.0	0.66431	-0.03076	
53.0	0.0	0.66724	-0.03278	
54.0	0.0	0.67017	-0.01556	
55.0	0.0	0.67126	-0.01648	
56.0	0.0	0.67236	-0.00073	
57.0	0.0	0.67346	0.0119	
58.0	0.0	0.67273	0.0379	
59.0	0.0	0.67236	0.06519	
60.0	0.0	0.672	0.08716	
61.0	0.0	0.6709	0.11847	
62.0	0.0	0.67163	0.14612	
63.0	0.0	0.67236	0.17743	
64.0	0.0	0.67383	0.20966	
65.0	0.0	0.67676	0.2406	
66.0	0.0	0.67896	0.27429	
67.0	0.0	0.68042	0.30579	
68.0	0.0	0.68335	0.34058	
69.0	0.0	0.68481	0.37463	
70.0	0.0	0.68628	0.40631	
71.0	0.0	0.68665	0.43451	
72.0	0.0	0.68555	0.45648	
73.0	0.0	0.68408	0.4834	
74.0	0.0	0.67969	0.50299	
75.0	0.0	0.67346	0.51855	
76.0	0.0	0.66687	0.54144	
77.0	0.0	0.65936	0.55334	
78.0	0.0	0.65149	0.56543	
79.0	0.0	0.6427	0.5733	
80.0	0.0	0.63354	0.58118	
81.0	0.0	0.62347	0.58704	
82.0	0.0	0.6145	0.59344	
83.0	0.0	0.60608	0.59308	
84.0	0.0	0.59839	0.59798	
85.0	0.0	0.5918	0.5918	
86.0	0.0	0.58466	0.59198	
87.0	0.0	0.57935	0.59326	
88.0	0.0	0.57404	0.59033	
89.0	0.0	0.57056	0.58118	
90.0	0.0	0.56781	0.57495	
91.0	0.0	0.56616	0.55902	
92.0	0.0	0.56653	0.55518	
93.0	0.0	0.56836	0.54309	
94.0	0.0	0.57202	0.53064	
95.0	0.0	0.57568	0.51892	
96.0	0.0	0.58044	0.50482	
97.0	0.0	0.58502	0.49603	
98.0	0.0	0.5896	0.48779	
99.0	0.0	0.59326	0.47699	
100.0	0.0	0.59656	0.46582	
101.0	0.0	0.59839	0.45731	
102.0	0.0	0.60132	0.44531	
103.0	0.0	0.6037	0.44037	
104.0	0.0	0.60498	0.42755	
105.0	0.0	0.60736	0.42188	
106.0	0.0	0.60938	0.41309	
107.0	0.0	0.61121	0.40576	
108.0	0.0	0.61322	0.39972	
109.0	0.0	0.6156	0.39294	
110.0	0.0	0.61926	0.38489	
111.0	0.0	0.62292	0.37994	
112.0	0.0	0.6264	0.36987	
113.0	0.0	0.6297	0.36621	
114.0	0.0	0.6308	0.35706	
115.0	0.0	0.63135	0.34845	
116.0	0.0	0.63098	0.3382	
117.0	0.0	0.63135	0.32794	
118.0	0.0	0.63171	0.31696	
119.0	0.0	0.63428	0.30743	
120.0	0.0	0.63611	0.30011	
121.0	0.0	0.63776	0.29388	
122.0	0.0	0.63831	0.28748	
123.0	0.0	0.63904	0.27997	
124.0	0.0	0.64197	0.2688	
125.0	0.0	0.64545	0.25964	
126.0	0.0	0.65112	0.25443	
127.0	0.0	0.65808	0.24738	
128.0	0.0	0.6665	0.24637	
129.0	0.0	0.67603	0.24051	
130.0	0.0	0.68774	0.24023	
131.0	0.0	0.6969	0.2384	
132.0	0.0	0.70679	0.24097	
133.0	0.0	0.71594	0.24463	
134.0	0.0	0.72583	0.2428	
135.0	0.0	0.73682	0.24463	
136.0	0.0	0.74707	0.24353	
137.0	0.0	0.75696	0.24353	
138.0	0.0	0.76575	0.24261	
139.0	0.0	0.77417	0.24756	
140.0	0.0	0.7804	0.24701	
141.0	0.0	0.78662	0.2406	
142.0	0.0	0.79138	0.23547	
143.0	0.0	0.79504	0.23346	
144.0	0.0	0.79834	0.23181	
145.0	0.0	0.802	0.23273	
146.0	0.0	0.80292	0.22156	
147.0	0.0	0.80383	0.22028	
148.0	0.0	0.80347	0.21533	
149.0	0.0	0.80237	0.2179	
150.0	0.0	0.8009	0.21423	
151.0	0.0	0.79834	0.21204	
152.0	0.0	0.79614	0.20453	
153.0	0.0	0.79468	0.20361	
154.0	0.0	0.79321	0.20343	
155.0	0.0	0.79065	0.19574	
156.0	0.0	0.78882	0.18823	
157.0	0.0	0.78644	0.18823	
158.0	0.0	0.78296	0.18512	
159.0	0.0	0.7804	0.18018	
160.0	0.0	0.77783	0.18091	
161.0	0.0	0.77563	0.17358	
162.0	0.0	0.77454	0.16809	
163.0	0.0	0.77271	0.17249	
164.0	0.0	0.77161	0.16754	
165.0	0.0	0.76868	0.15839	
166.0	0.0	0.76465	0.16223	
167.0	0.0	0.75952	0.16113	
168.0	0.0	0.75293	0.14978	
169.0	0.0	0.74524	0.15747	
170.0	0.0	0.73846	0.14539	
171.0	0.0	0.73114	0.14667	
172.0	0.0	0.72363	0.15088	
173.0	0.0	0.71704	0.14777	
174.0	0.0	0.71027	0.15106	
175.0	0.0	0.70276	0.14722	
176.0	0.0	0.69507	0.14941	
177.0	0.0	0.68701	0.15491	
178.0	0.0	0.68005	0.1582	
179.0	0.0	0.67236	0.15198	
180.0	0.0	0.66467	0.15839	
181.0	0.0	0.65771	0.1507	
182.0	0.0	0.65112	0.15674	
183.0	0.0	0.6438	0.15161	
184.0	0.0	0.63684	0.15417	
185.0	0.0	0.63062	0.15692	
186.0	0.0	0.62292	0.15985	
187.0	0.0	0.6156	0.16736	
188.0	0.0	0.60791	0.16919	
189.0	0.0	0.60059	0.17358	
190.0	0.0	0.59271	0.17432	
191.0	0.0	0.58521	0.17725	
192.0	0.0	0.57751	0.17377	
193.0	0.0	0.56927	0.17715	
194.0	0.0	0.5625	0.1756	
195.0	0.0	0.55481	0.17249	
196.0	0.0	0.54712	0.17249	
197.0	0.0	0.54053	0.17395	
198.0	0.0	0.53357	0.17761	
199.0	0.0	0.52661	0.17926	
200.0	0.0	0.52002	0.18164	
201.0	0.0	0.51343	0.18384	
202.0	0.0	0.50757	0.18677	
203.0	0.0	0.50189	0.18915	
204.0	0.0	0.49512	0.19189	
205.0	0.0	0.48962	0.19409	
206.0	0.0	0.48376	0.19647	
207.0	0.0	0.47827	0.19995	
208.0	0.0	0.47314	0.20325	
209.0	0.0	0.46838	0.20599	
210.0	0.0	0.46271	0.20929	
211.0	0.0	0.45959	0.2124	
212.0	0.0	0.45483	0.21552	
213.0	0.0	0.45209	0.21753	
214.0	0.0	0.44824	0.21625	
215.0	0.0	0.44604	0.22009	
216.0	0.0	0.44238	0.22192	
217.0	0.0	0.43927	0.22083	
218.0	0.0	0.43616	0.22156	
219.0	0.0	0.43359	0.22298	
220.0	0.0	0.43066	0.22449	
221.0	0.0	0.42737	0.22357	
222.0	0.0	0.42389	0.2265	
223.0	0.0	0.42059	0.23053	
224.0	0.0	0.41785	0.22998	
225.0	0.0	0.41492	0.23199	
226.0	0.0	0.41345	0.23438	
227.0	0.0	0.41162	0.23108	
228.0	0.0	0.40942	0.23346	
229.0	0.0	0.40576	0.23218	
230.0	0.0	0.4032	0.23035	
231.0	0.0	0.3999	0.22879	
232.0	0.0	0.39917	0.22852	
233.0	0.0	0.3988	0.22357	
234.0	0.0	0.39917	0.22449	
235.0	0.0	0.39917	0.22412	
236.0	0.0	0.39844	0.22705	
237.0	0.0	0.39624	0.22467	
238.0	0.0	0.39404	0.22229	
239.0	0.0	0.39148	0.21387	
240.0	0.0	0.38928	0.21387	
241.0	0.0	0.38818	0.2113	
242.0	0.0	0.38782	0.21002	
243.0	0.0	0.38763	0.20892	
244.0	0.0	0.38864	0.20782	
245.0	0.0	0.39111	0.20764	
246.0	0.0	0.39331	0.20837	
247.0	0.0	0.39587	0.21126	
248.0	0.0	0.39954	0.21552	
249.0	0.0	0.40411	0.22137	
250.0	0.0	0.40942	0.22449	
251.0	0.0	0.41473	0.22064	
252.0	0.0	0.42114	0.22101	
253.0	0.0	0.42627	0.22101	
254.0	0.0	0.43158	0.21588	
255.0	0.0	0.43652	0.21313	
256.0	0.0	0.44165	0.20654	
257.0	0.0	0.44568	0.20526	
258.0	0.0	0.45007	0.20178	
259.0	0.0	0.45337	0.1983	
260.0	0.0	0.45667	0.19373	
261.0	0.0	0.46014	0.18878	
262.0	0.0	0.46326	0.18347	
263.0	0.0	0.46436	0.17908	
264.0	0.0	0.46509	0.17358	
265.0	0.0	0.46619	0.16901	
266.0	0.0	0.466	0.16415	
267.0	0.0	0.46655	0.15747	
268.0	0.0	0.46729	0.15125	
269.0	0.0	0.46802	0.1441	
270.0	0.0	0.46765	0.14209	
271.0	0.0	0.46747	0.13733	
272.0	0.0	0.46619	0.12982	
273.0	0.0	0.46582	0.12506	
274.0	0.0	0.46582	0.11884	
275.0	0.0	0.46619	0.11343	
276.0	0.0	0.46875	0.10803	
277.0	0.0	0.47095	0.10437	
278.0	0.0	0.47406	0.10071	
279.0	0.0	0.47607	0.09558	
280.0	0.0	0.47754	0.09192	
281.0	0.0	0.47827	0.08771	
282.0	0.0	0.47882	0.08643	
283.0	0.0	0.47937	0.08221	
284.0	0.0	0.47937	0.07874	
285.0	0.0	0.47974	0.07251	
286.0	0.0	0.4812	0.065	
287.0	0.0	0.4823	0.05988	
288.0	0.0	0.48413	0.05713	
289.0	0.0	0.4856	0.04834	
290.0	0.0	0.48669	0.04504	
291.0	0.0	0.48816	0.03644	
292.0	0.0	0.48926	0.03223	
293.0	0.0	0.49072	0.02527	
294.0	0.0	0.49182	0.01465	
295.0	0.0	0.49292	0.01099	
296.0	0.0	0.49402	0.00037	
297.0	0.0	0.49512	-0.00806	
298.0	0.0	0.49603	-0.01245	
299.0	0.0	0.49548	-0.01575	
300.0	0.0	0.49512	-0.01996	
301.0	0.0	0.49475	-0.02875	
302.0	0.0	0.49329	-0.03552	
303.0	0.0	0.49255	-0.04102	
304.0	0.0	0.49054	-0.0466	
305.0	0.0	0.48962	-0.04999	
306.0	0.0	0.48853	-0.05841	
307.0	0.0	0.48669	-0.06262	
308.0	0.0	0.4856	-0.0694	
309.0	0.0	0.4845	-0.06903	
310.0	0.0	0.48303	-0.07892	
311.0	0.0	0.48212	-0.08029	
312.0	0.0	0.48083	-0.08551	
313.0	0.0	0.47992	-0.08881	
314.0	0.0	0.47827	-0.09412	
315.0	0.0	0.47717	-0.09705	
316.0	0.0	0.47461	-0.0954	
317.0	0.0	0.4726	-0.10364	
318.0	0.0	0.47021	-0.09741	
319.0	0.0	0.46783	-0.10693	
320.0	0.0	0.46582	-0.10822	
321.0	0.0	0.46436	-0.11417	
322.0	0.0	0.46289	-0.11975	
323.0	0.0	0.46179	-0.12323	
324.0	0.0	0.46014	-0.12653	
325.0	0.0	0.4574	-0.12891	
326.0	0.0	0.45282	-0.12891	
327.0	0.0	0.44751	-0.13715	
328.0	0.0	0.44128	-0.14264	
329.0	0.0	0.43597	-0.14044	
330.0	0.0	0.4314	-0.14612	
331.0	0.0	0.42737	-0.15207	
332.0	0.0	0.42297	-0.15161	
333.0	0.0	0.41895	-0.15143	
334.0	0.0	0.41418	-0.15619	
335.0	0.0	0.40869	-0.16113	
336.0	0.0	0.4032	-0.16663	
337.0	0.0	0.3988	-0.16901	
338.0	0.0	0.39404	-0.17546	
339.0	0.0	0.39038	-0.18512	
340.0	0.0	0.38818	-0.18018	
341.0	0.0	0.38599	-0.19098	
342.0	0.0	0.38452	-0.2005	
343.0	0.0	0.38251	-0.20151	
344.0	0.0	0.38159	-0.19336	
345.0	0.0	0.38123	-0.19409	
346.0	0.0	0.38031	-0.20581	
347.0	0.0	0.38013	-0.20123	
348.0	0.0	0.38013	-0.2049	
349.0	0.0	0.38086	-0.1994	
350.0	0.0	0.38049	-0.21149	
351.0	0.0	0.38123	-0.21661	
352.0	0.0	0.38123	-0.21661	
353.0	0.0	0.38196	-0.22238	
354.0	0.0	0.38251	-0.22833	
355.0	0.0	0.38251	-0.2254	
356.0	0.0	0.38306	-0.23035	
357.0	0.0	0.38287	-0.24481	
358.0	0.0	0.38232	-0.24115	
359.0	0.0	0.38159	-0.24719	
360.0	0.0	0.37958	-0.25195	
361.0	0.0	0.37793	-0.25214	
362.0	0.0	0.37518	-0.23996	
363.0	0.0	0.37207	-0.25122	
364.0	0.0	0.36987	-0.25269	
365.0	0.0	0.36731	-0.25507	
366.0	0.0	0.36475	-0.24463	
367.0	0.0	0.36145	-0.2428	
368.0	0.0	0.35852	-0.24335	
369.0	0.0	0.35504	-0.25168	
370.0	0.0	0.35229	-0.25488	
371.0	0.0	0.34863	-0.25342	
372.0	0.0	0.3457	-0.25562	
373.0	0.0	0.34497	-0.24463	
374.0	0.0	0.34424	-0.25507	
375.0	0.0	0.34424	-0.24609	
376.0	0.0	0.34296	-0.24646	
377.0	0.0	0.34131	-0.23914	
378.0	0.0	0.33893	-0.23529	
379.0	0.0	0.33618	-0.22293	
380.0	0.0	0.3338	-0.21826	
381.0	0.0	0.33179	-0.21487	
382.0	0.0	0.33124	-0.20728	
383.0	0.0	0.33032	-0.20581	
384.0	0.0	0.32996	-0.20874	
385.0	0.0	0.32959	-0.20618	
386.0	0.0	0.32849	-0.19519	
387.0	0.0	0.32666	-0.20325	
388.0	0.0	0.3252	-0.19958	
389.0	0.0	0.323	-0.19061	
390.0	0.0	0.32007	-0.19446	
391.0	0.0	0.31677	-0.19281	
392.0	0.0	0.31201	-0.19281	
393.0	0.0	0.30597	-0.19025	
394.0	0.0	0.29993	-0.18384	
395.0	0.0	0.2937	-0.17706	
396.0	0.0	0.28802	-0.18155	
397.0	0.0	0.28381	-0.17615	
398.0	0.0	0.28052	-0.17267	
399.0	0.0	0.27795	-0.16718	
400.0	0.0	0.27759	-0.16571	
401.0	0.0	0.27814	-0.15747	
402.0	0.0	0.28088	-0.15747	
403.0	0.0	0.28455	-0.15656	
404.0	0.0	0.28967	-0.1539	
405.0	0.0	0.2937	-0.15161	
406.0	0.0	0.29626	-0.15005	
407.0	0.0	0.29755	-0.15125	
408.0	0.0	0.29773	-0.15244	
409.0	0.0	0.29755	-0.15344	
410.0	0.0	0.29709	-0.15271	
411.0	0.0	0.297	-0.15051	
412.0	0.0	0.29846	-0.15143	
413.0	0.0	0.30066	-0.15015	
414.0	0.0	0.30249	-0.14447	
415.0	0.0	0.30505	-0.14301	
416.0	0.0	0.30634	-0.14392	
417.0	0.0	0.30725	-0.13531	
418.0	0.0	0.30762	-0.13641	
419.0	0.0	0.30688	-0.1344	
420.0	0.0	0.30652	-0.13275	
421.0	0.0	0.30396	-0.1311	
422.0	0.0	0.30066	-0.13055	
423.0	0.0	0.2959	-0.12488	
424.0	0.0	0.2915	-0.12579	
425.0	0.0	0.28693	-0.12488	
426.0	0.0	0.28217	-0.11865	
427.0	0.0	0.27869	-0.11444	
428.0	0.0	0.27649	-0.10968	
429.0	0.0	0.27319	-0.1062	
430.0	0.0	0.2688	-0.10199	
431.0	0.0	0.26331	-0.09979	
432.0	0.0	0.25726	-0.10016	
433.0	0.0	0.25122	-0.10254	
434.0	0.0	0.24463	-0.10217	
435.0	0.0	0.23877	-0.10071	
436.0	0.0	0.23328	-0.09924	
437.0	0.0	0.2287	-0.09888	
438.0	0.0	0.22449	-0.09695	
439.0	0.0	0.21973	-0.09174	
440.0	0.0	0.2168	-0.08936	
441.0	0.0	0.21387	-0.08478	
442.0	0.0	0.2113	-0.07837	
443.0	0.0	0.21039	-0.07397	
444.0	0.0	0.21057	-0.07104	
445.0	0.0	0.2124	-0.06903	
446.0	0.0	0.2146	-0.06839	
447.0	0.0	0.21844	-0.06848	
448.0	0.0	0.22375	-0.06876	
449.0	0.0	0.23108	-0.0694	
450.0	0.0	0.2384	-0.0705	
451.0	0.0	0.24756	-0.07178	
452.0	0.0	0.25818	-0.07324	
453.0	0.0	0.26917	-0.07471	
454.0	0.0	0.28125	-0.07764	
455.0	0.0	0.29187	-0.07892	
456.0	0.0	0.30066	-0.07764	
457.0	0.0	0.30835	-0.08038	
458.0	0.0	0.31384	-0.078	
459.0	0.0	0.31824	-0.08221	
460.0	0.0	0.32281	-0.07947	
461.0	0.0	0.32648	-0.08313	
462.0	0.0	0.33032	-0.08148	
463.0	0.0	0.3349	-0.07947	
464.0	0.0	0.34058	-0.07983	
465.0	0.0	0.3457	-0.0791	
466.0	0.0	0.35156	-0.07452	
467.0	0.0	0.35779	-0.07928	
468.0	0.0	0.36218	-0.0802	
469.0	0.0	0.36566	-0.07727	
470.0	0.0	0.36694	-0.08405	
471.0	0.0	0.36621	-0.08331	
472.0	0.0	0.36438	-0.08569	
473.0	0.0	0.36365	-0.08569	
474.0	0.0	0.36438	-0.08459	
475.0	0.0	0.36511	-0.08276	
476.0	0.0	0.36768	-0.08057	
477.0	0.0	0.37024	-0.07324	
478.0	0.0	0.37225	-0.06921	
479.0	0.0	0.3739	-0.05969	
480.0	0.0	0.37427	-0.04926	
481.0	0.0	0.37482	-0.03864	
482.0	0.0	0.37573	-0.03058	
483.0	0.0	0.3761	-0.02087	
484.0	0.0	0.3772	-0.01186	
485.0	0.0	0.37811	0.00082	
486.0	0.0	0.37976	0.00604	
487.0	0.0	0.38159	0.0141	
488.0	0.0	0.38452	0.02014	
489.0	0.0	0.38745	0.02509	
490.0	0.0	0.39038	0.02783	
491.0	0.0	0.39221	0.03131	
492.0	0.0	0.39294	0.03168	
493.0	0.0	0.39185	0.03168	
494.0	0.0	0.3891	0.03278	
495.0	0.0	0.38525	0.03387	
496.0	0.0	0.38232	0.03799	
497.0	0.0	0.37921	0.03955	
498.0	0.0	0.37811	0.04504	
499.0	0.0	0.37903	0.04742	
500.0	0.0	0.38086	0.05219	
501.0	0.0	0.38379	0.05511	
502.0	0.0	0.38525	0.05786	
503.0	0.0	0.38782	0.05814	
504.0	0.0	0.38965	0.06024	
505.0	0.0	0.3913	0.06042	
506.0	0.0	0.39368	0.05969	
507.0	0.0	0.39587	0.05969	
508.0	0.0	0.39917	0.05695	
509.0	0.0	0.40283	0.05511	
510.0	0.0	0.40576	0.05237	
511.0	0.0	0.40906	0.05072	
512.0	0.0	0.41235	0.04614	
513.0	0.0	0.41309	0.04468	
514.0	0.0	0.41528	0.0444	
515.0	0.0	0.4184	0.03937	
516.0	0.0	0.42078	0.03772	
517.0	0.0	0.42426	0.03717	
518.0	0.0	0.42957	0.03735	
519.0	0.0	0.43323	0.03241	
520.0	0.0	0.43726	0.03223	
521.0	0.0	0.43854	0.03058	
522.0	0.0	0.43945	0.03186	
523.0	0.0	0.44019	0.0282	
524.0	0.0	0.4411	0.03113	
525.0	0.0	0.44238	0.03186	
526.0	0.0	0.44641	0.03369	
527.0	0.0	0.44971	0.03168	
528.0	0.0	0.45337	0.03094	
529.0	0.0	0.45483	0.03223	
530.0	0.0	0.45703	0.02911	
531.0	0.0	0.45831	0.02618	
532.0	0.0	0.45996	0.02957	
533.0	0.0	0.46179	0.02618	
534.0	0.0	0.46564	0.02783	
535.0	0.0	0.47095	0.03076	
536.0	0.0	0.47754	0.04028	
537.0	0.0	0.48505	0.03809	
538.0	0.0	0.49237	0.0423	
539.0	0.0	0.49915	0.05054	
540.0	0.0	0.5061	0.06226	
541.0	0.0	0.51196	0.07004	
542.0	0.0	0.51709	0.07306	
543.0	0.0	0.52185	0.07764	
544.0	0.0	0.52533	0.08167	
545.0	0.0	0.53027	0.08533	
546.0	0.0	0.53412	0.08881	
547.0	0.0	0.53796	0.08368	
548.0	0.0	0.54309	0.08276	
549.0	0.0	0.54749	0.07782	
550.0	0.0	0.55133	0.07672	
551.0	0.0	0.55463	0.07764	
552.0	0.0	0.55737	0.07251	
553.0	0.0	0.55884	0.07434	
554.0	0.0	0.55957	0.06647	
555.0	0.0	0.55957	0.06409	
556.0	0.0	0.55811	0.06427	
557.0	0.0	0.55518	0.05676	
558.0	0.0	0.55005	0.05402	
559.0	0.0	0.54272	0.05255	
560.0	0.0	0.53467	0.039	
561.0	0.0	0.52515	0.03534	
562.0	0.0	0.51086	0.02985	
563.0	0.0	0.48596	0.02655	
564.0	0.0	0.45044	0.02747	
565.0	0.0	0.4032	0.02893	
566.0	0.0	0.35339	0.03186	
567.0	0.0	0.30981	0.02802	
568.0	0.0	0.27484	0.01355	
569.0	0.0	0.25195	-0.00494	
570.0	0.0	0.23877	-0.0249	
571.0	0.0	0.23328	-0.04303	
572.0	0.0	0.23767	-0.06042	
573.0	0.0	0.25763	-0.08368	
574.0	0.0	0.29114	-0.11169	
575.0	0.0	0.33948	-0.14136	
576.0	0.0	0.40466	-0.16498	
577.0	0.0	0.47864	-0.18265	
578.0	0.0	0.54895	-0.19116	
579.0	0.0	0.61267	-0.20801	
580.0	0.0	0.67053	-0.21149	
581.0	0.0	0.72455	-0.2276	
582.0	0.0	0.77417	-0.23282	
583.0	0.0	0.82013	-0.25049	
584.0	0.0	0.86279	-0.23804	
585.0	0.0	0.90088	-0.24115	
586.0	0.0	0.93494	-0.24115	
587.0	0.0	0.9624	-0.25415	
588.0	0.0	0.98474	-0.23309	
589.0	0.0	1.00269	-0.22614	
590.0	0.0	1.0188	-0.22742	
591.0	0.0	1.03198	-0.21112	
592.0	0.0	1.04333	-0.21387	
593.0	0.0	1.05396	-0.2048	
594.0	0.0	1.06311	-0.21515	
595.0	0.0	1.0708	-0.21062	
596.0	0.0	1.07666	-0.21039	
597.0	0.0	1.07703	-0.20636	
598.0	0.0	1.07391	-0.20984	
599.0	0.0	1.06348	-0.19116	
600.0	0.0	1.04773	-0.19171	
601.0	0.0	1.02905	-0.18768	
602.0	0.0	1.00745	-0.17688	
603.0	0.0	0.98547	-0.17065	
604.0	0.0	0.9624	-0.14905	
605.0	0.0	0.93604	-0.12799	
606.0	0.0	0.90381	-0.11078	
607.0	0.0	0.86426	-0.07635	
608.0	0.0	0.81976	-0.04706	
609.0	0.0	0.77454	-0.02014	
610.0	0.0	0.72858	0.01465	
611.0	0.0	0.68555	0.05859	
612.0	0.0	0.64325	0.1041	
613.0	0.0	0.60352	0.16388	
614.0	0.0	0.5625	0.22504	
615.0	0.0	0.52295	0.28235	
616.0	0.0	0.48376	0.33545	
617.0	0.0	0.44696	0.39001	
618.0	0.0	0.41052	0.43304	
619.0	0.0	0.37573	0.492	
620.0	0.0	0.34204	0.54126	
621.0	0.0	0.31	0.59161	
622.0	0.0	0.28033	0.65497	
623.0	0.0	0.25397	0.70074	
624.0	0.0	0.22998	0.74835	
625.0	0.0	0.20911	0.78259	
626.0	0.0	0.18787	0.81812	
627.0	0.0	0.16699	0.85364	
628.0	0.0	0.14648	0.88202	
629.0	0.0	0.12781	0.90875	
630.0	0.0	0.1106	0.93439	
631.0	0.0	0.09613	0.9538	
632.0	0.0	0.08386	0.97009	
633.0	0.0	0.07397	0.99078	
634.0	0.0	0.06409	1.00227	
635.0	0.0	0.0542	0.99225	
636.0	0.0	0.04413	1.01184	
637.0	0.0	0.03516	1.02521	
638.0	0.0	0.02856	1.03583	
639.0	0.0	0.0249	1.04059	
640.0	0.0	0.02325	1.04407	
641.0	0.0	0.02454	1.03473	
642.0	0.0	0.02802	1.03564	
643.0	0.0	0.03333	1.03473	
644.0	0.0	0.04102	1.0285	
645.0	0.0	0.0498	1.01459	
646.0	0.0	0.05933	1.02173	
647.0	0.0	0.06848	0.99756	
648.0	0.0	0.07837	0.99609	
649.0	0.0	0.08789	0.95801	
650.0	0.0	0.0976	0.9624	
651.0	0.0	0.10583	0.94263	
652.0	0.0	0.11353	0.92175	
653.0	0.0	0.11865	0.90967	
654.0	0.0	0.12268	0.89026	
655.0	0.0	0.12561	0.86627	
656.0	0.0	0.12744	0.84943	
657.0	0.0	0.13037	0.81555	
658.0	0.0	0.1333	0.80017	
659.0	0.0	0.13586	0.79596	
660.0	0.0	0.13733	0.7912	
661.0	0.0	0.14026	0.78662	
662.0	0.0	0.14392	0.78534	
663.0	0.0	0.14539	0.78058	
664.0	0.0	0.14722	0.75476	
665.0	0.0	0.15747	0.76337	
666.0	0.0	0.18091	0.75732	
667.0	0.0	0.22119	0.75238	
668.0	0.0	0.28271	0.75769	
669.0	0.0	0.35211	0.75842	
670.0	0.0	0.41199	0.74744	
671.0	0.0	0.4563	0.75027	
672.0	0.0	0.4834	0.72217	
673.0	0.0	0.4953	0.69159	
674.0	0.0	0.49146	0.69141	
675.0	0.0	0.47186	0.68774	
676.0	0.0	0.44019	0.68463	
677.0	0.0	0.40063	0.6665	
678.0	0.0	0.36072	0.67822	
679.0	0.0	0.32446	0.67639	
680.0	0.0	0.29718	0.67273	
681.0	0.0	0.2785	0.67218	
682.0	0.0	0.27979	0.66925	
683.0	0.0	0.29956	0.66998	
684.0	0.0	0.3349	0.66412	
685.0	0.0	0.3739	0.65533	
686.0	0.0	0.40594	0.6394	
687.0	0.0	0.42224	0.62512	
688.0	0.0	0.42334	0.61395	
689.0	0.0	0.40942	0.60626	
690.0	0.0	0.38086	0.59967	
691.0	0.0	0.33783	0.58759	
692.0	0.0	0.28601	0.56689	
693.0	0.0	0.22943	0.52313	
694.0	0.0	0.17065	0.48431	
695.0	0.0	0.11169	0.40924	
696.0	0.0	0.05127	0.33691	
697.0	0.0	-0.00586	0.26971	
698.0	0.0	-0.05969	0.20691	
699.0	0.0	-0.1106	0.15875	
700.0	0.0	-0.15912	0.12177	
701.0	0.0	-0.20636	0.09137	
702.0	0.0	-0.25598	0.05695	
703.0	0.0	-0.31055	0.02655	
704.0	0.0	-0.36969	-0.01996	
705.0	0.0	-0.43268	-0.07068	
706.0	0.0	-0.49402	-0.11993	
707.0	0.0	-0.5517	-0.18402	
708.0	0.0	-0.60608	-0.25085	
709.0	0.0	-0.65689	-0.31805	
710.0	0.0	-0.70532	-0.38123	
711.0	0.0	-0.75055	-0.43835	
712.0	0.0	-0.79312	-0.49915	
713.0	0.0	-0.83313	-0.55719	
714.0	0.0	-0.87154	-0.61047	
715.0	0.0	-0.90674	-0.65717	
716.0	0.0	-0.94098	-0.70084	
717.0	0.0	-0.97266	-0.74432	
718.0	0.0	-1.00269	-0.78607	
719.0	0.0	-1.03107	-0.82452	
720.0	0.0	-1.0578	-0.85767	
721.0	0.0	-1.08289	-0.8941	
722.0	0.0	-1.10719	-0.91873	
723.0	0.0	-1.12958	-0.94803	
724.0	0.0	-1.151	-0.97591	
725.0	0.0	-1.17023	-1.00452	
726.0	0.0	-1.18588	-1.03354	
727.0	0.0	-1.19705	-1.05743	
728.0	0.0	-1.20332	-1.07812	
729.0	0.0	-1.21088	-1.09927	
730.0	0.0	-1.22021	-1.11969	
731.0	0.0	-1.23349	-1.1321	
732.0	0.0	-1.24969	-1.13956	
733.0	0.0	-1.26334	-1.13837	
734.0	0.0	-1.27625	-1.13654	
735.0	0.0	-1.28934	-1.13168	
736.0	0.0	-1.30124	-1.12848	
737.0	0.0	-1.3125	-1.10175	
738.0	0.0	-1.32321	-1.07062	
739.0	0.0	-1.33319	-1.03308	
740.0	0.0	-1.34262	-1.00003	
741.0	0.0	-1.35159	-0.97247	
742.0	0.0	-1.36011	-0.94382	
743.0	0.0	-1.36766	-0.92578	
744.0	0.0	-1.37535	-0.90912	
745.0	0.0	-1.38217	-0.91516	
746.0	0.0	-1.38867	-0.93759	
747.0	0.0	-1.39508	-0.95302	
748.0	0.0	-1.40071	-0.96712	
749.0	0.0	-1.40616	-0.96945	
750.0	0.0	-1.41124	-0.93695	
751.0	0.0	-1.41605	-0.90619	
752.0	0.0	-1.4198	-0.88623	
753.0	0.0	-1.42209	-0.85483	
754.0	0.0	-1.42268	-0.82086	
755.0	0.0	-1.42085	-0.78699	
756.0	0.0	-1.41641	-0.75613	
757.0	0.0	-1.41028	-0.73718	
758.0	0.0	-1.40364	-0.71594	
759.0	0.0	-1.39609	-0.69708	
760.0	0.0	-1.38762	-0.67017	
761.0	0.0	-1.37823	-0.63446	
762.0	0.0	-1.36871	-0.60333	
763.0	0.0	-1.35947	-0.56653	
764.0	0.0	-1.35077	-0.51105	
765.0	0.0	-1.34271	-0.46033	
766.0	0.0	-1.33434	-0.37134	
767.0	0.0	-1.32578	-0.28326	
768.0	0.0	-1.3158	-0.18329	
769.0	0.0	-1.30481	-0.09293	
770.0	0.0	-1.29236	-0.00549	
771.0	0.0	-1.28046	0.09045	
772.0	0.0	-1.26828	0.16351	
773.0	0.0	-1.2572	0.22412	
774.0	0.0	-1.24475	0.28473	
775.0	0.0	-1.23212	0.33316	
776.0	0.0	-1.22095	0.3598	
777.0	0.0	-1.21394	0.35962	
778.0	0.0	-1.20987	0.33435	
779.0	0.0	-1.20428	0.30872	
780.0	0.0	-1.19458	0.27026	
781.0	0.0	-1.18121	0.2525	
782.0	0.0	-1.16776	0.21112	
783.0	0.0	-1.15311	0.21826	
784.0	0.0	-1.13745	0.22009	
785.0	0.0	-1.1218	0.22028	
786.0	0.0	-1.10733	0.23364	
787.0	0.0	-1.09534	0.24042	
788.0	0.0	-1.08595	0.27557	
789.0	0.0	-1.07913	0.30267	
790.0	0.0	-1.07405	0.33197	
791.0	0.0	-1.06888	0.34332	
792.0	0.0	-1.06288	0.3631	
793.0	0.0	-1.0578	0.40228	
794.0	0.0	-1.05212	0.42389	
795.0	0.0	-1.04489	0.44403	
796.0	0.0	-1.03647	0.44563	
797.0	0.0	-1.02676	0.44348	
798.0	0.0	-1.01715	0.44989	
799.0	0.0	-1.00909	0.44037	
800.0	0.0	-1.0025	0.4292	
801.0	0.0	-0.99728	0.42151	
802.0	0.0	-0.99271	0.4222	
803.0	0.0	-0.98941	0.42609	
804.0	0.0	-0.98566	0.40265	
805.0	0.0	-0.98254	0.42206	
806.0	0.0	-0.97943	0.42957	
807.0	0.0	-0.97485	0.42023	
808.0	0.0	-0.97119	0.39505	
809.0	0.0	-0.96744	0.4021	
810.0	0.0	-0.96387	0.39038	
811.0	0.0	-0.95901	0.41107	
812.0	0.0	-0.95325	0.41272	
813.0	0.0	-0.94775	0.40027	
814.0	0.0	-0.94345	0.38782	
815.0	0.0	-0.94052	0.37994	
816.0	0.0	-0.93933	0.36658	
817.0	0.0	-0.93896	0.35413	
818.0	0.0	-0.93933	0.33527	
819.0	0.0	-0.93713	0.29883	
820.0	0.0	-0.93237	0.27173	
821.0	0.0	-0.92445	0.2287	
822.0	0.0	-0.91388	0.20032	
823.0	0.0	-0.90065	0.1626	
824.0	0.0	-0.88623	0.13367	
825.0	0.0	-0.87012	0.12726	
826.0	0.0	-0.85309	0.12781	
827.0	0.0	-0.84375	0.1474	
828.0	0.0	-0.83917	0.18073	
829.0	0.0	-0.83112	0.21515	
830.0	0.0	-0.82306	0.27631	
831.0	0.0	-0.81473	0.33875	
832.0	0.0	-0.80402	0.40283	
833.0	0.0	-0.79065	0.47314	
834.0	0.0	-0.77582	0.53137	
835.0	0.0	-0.76044	0.58374	
836.0	0.0	-0.74451	0.63263	
837.0	0.0	-0.72977	0.66431	
838.0	0.0	-0.71521	0.7229	
839.0	0.0	-0.70038	0.77362	
840.0	0.0	-0.68555	0.81079	
841.0	0.0	-0.67181	0.84869	
842.0	0.0	-0.6579	0.88989	
843.0	0.0	-0.64362	0.9267	
844.0	0.0	-0.62787	0.95837	
845.0	0.0	-0.61212	0.99133	
846.0	0.0	-0.59482	1.01733	
847.0	0.0	-0.57697	1.03473	
848.0	0.0	-0.55902	1.05835	
849.0	0.0	-0.54236	1.07373	
850.0	0.0	-0.52771	1.08252	
851.0	0.0	-0.51599	1.08014	
852.0	0.0	-0.50684	1.06567	
853.0	0.0	-0.49896	1.01477	
854.0	0.0	-0.49274	0.98804	
855.0	0.0	-0.4856	0.94592	
856.0	0.0	-0.47772	0.90948	
857.0	0.0	-0.46985	0.88513	
858.0	0.0	-0.46216	0.85574	
859.0	0.0	-0.45667	0.79248	
860.0	0.0	-0.45355	0.74323	
861.0	0.0	-0.4519	0.69946	
862.0	0.0	-0.45172	0.66101	
863.0	0.0	-0.4519	0.61395	
864.0	0.0	-0.4519	0.57349	
865.0	0.0	-0.45007	0.5365	
866.0	0.0	-0.44623	0.48596	
867.0	0.0	-0.43982	0.43391	
868.0	0.0	-0.43359	0.37646	
869.0	0.0	-0.42645	0.32739	
870.0	0.0	-0.42078	0.26257	
871.0	0.0	-0.41455	0.20526	
872.0	0.0	-0.40906	0.14392	
873.0	0.0	-0.40411	0.05438	
874.0	0.0	-0.39954	-0.02124	
875.0	0.0	-0.39441	-0.08478	
876.0	0.0	-0.38892	-0.12726	
877.0	0.0	-0.38123	-0.13348	
878.0	0.0	-0.37189	-0.1181	
879.0	0.0	-0.35962	-0.08112	
880.0	0.0	-0.34772	-0.0564	
881.0	0.0	-0.33618	-0.01831	
882.0	0.0	-0.32629	0.0282	
883.0	0.0	-0.31787	0.09265	
884.0	0.0	-0.31055	0.16846	
885.0	0.0	-0.30322	0.25012	
886.0	0.0	-0.29443	0.32428	
887.0	0.0	-0.28455	0.39294	
888.0	0.0	-0.27319	0.47141	
889.0	0.0	-0.25946	0.53348	
890.0	0.0	-0.24518	0.5907	
891.0	0.0	-0.23053	0.64481	
892.0	0.0	-0.2168	0.69159	
893.0	0.0	-0.2027	0.72656	
894.0	0.0	-0.18915	0.77142	
895.0	0.0	-0.17651	0.80585	
896.0	0.0	-0.16333	0.84467	
897.0	0.0	-0.14905	0.87923	
898.0	0.0	-0.13477	0.90143	
899.0	0.0	-0.11938	0.92899	
900.0	0.0	-0.104	0.93777	
901.0	0.0	-0.09082	0.94519	
902.0	0.0	-0.0791	0.95068	
903.0	0.0	-0.06921	0.94954	
904.0	0.0	-0.06116	0.94812	
905.0	0.0	-0.05457	0.94354	
906.0	0.0	-0.04944	0.93896	
907.0	0.0	-0.04303	0.9386	
908.0	0.0	-0.03516	0.93933	
909.0	0.0	-0.0249	0.93951	
910.0	0.0	-0.01538	0.9375	
911.0	0.0	-0.00513	0.93018	
912.0	0.0	0.00403	0.91296	
913.0	0.0	0.01373	0.89594	
914.0	0.0	0.02289	0.86041	
915.0	0.0	0.03241	0.84407	
916.0	0.0	0.04102	0.80878	
917.0	0.0	0.04761	0.77376	
918.0	0.0	0.04999	0.74268	
919.0	0.0	0.04907	0.70807	
920.0	0.0	0.04907	0.66907	
921.0	0.0	0.04962	0.62842	
922.0	0.0	0.04999	0.60901	
923.0	0.0	0.0542	0.57843	
924.0	0.0	0.06207	0.55774	
925.0	0.0	0.07214	0.5647	
926.0	0.0	0.08057	0.56927	
927.0	0.0	0.09119	0.57953	
928.0	0.0	0.09998	0.59601	
929.0	0.0	0.10913	0.61377	
930.0	0.0	0.11609	0.63116	
931.0	0.0	0.12323	0.659	
932.0	0.0	0.12854	0.68555	
933.0	0.0	0.1333	0.70532	
934.0	0.0	0.1344	0.74194	
935.0	0.0	0.1355	0.77289	
936.0	0.0	0.13495	0.7972	
937.0	0.0	0.13275	0.8399	
938.0	0.0	0.12964	0.87048	
939.0	0.0	0.12598	0.89557	
940.0	0.0	0.12122	0.92084	
941.0	0.0	0.11719	0.93164	
942.0	0.0	0.11243	0.95782	
943.0	0.0	0.10968	0.95837	
944.0	0.0	0.10822	0.96606	
945.0	0.0	0.10858	0.9657	
946.0	0.0	0.10959	0.9657	
947.0	0.0	0.11096	0.94171	
948.0	0.0	0.11206	0.96021	
949.0	0.0	0.11426	0.93347	
950.0	0.0	0.11682	0.94263	
951.0	0.0	0.1214	0.93823	
952.0	0.0	0.12726	0.92798	
953.0	0.0	0.13477	0.91992	
954.0	0.0	0.14301	0.91827	
955.0	0.0	0.15234	0.92523	
956.0	0.0	0.1615	0.9375	
957.0	0.0	0.1712	0.95508	
958.0	0.0	0.17981	0.97961	
959.0	0.0	0.18823	1.01385	
960.0	0.0	0.19427	1.03967	
961.0	0.0	0.20013	1.07259	
962.0	0.0	0.20618	1.0849	
963.0	0.0	0.21387	1.08801	
964.0	0.0	0.22266	1.10687	
965.0	0.0	0.23273	1.1001	
966.0	0.0	0.24188	1.09552	
967.0	0.0	0.25122	1.07794	
968.0	0.0	0.25708	1.06421	
969.0	0.0	0.26477	1.0437	
970.0	0.0	0.27155	1.03601	
971.0	0.0	0.27832	1.05652	
972.0	0.0	0.28455	1.05945	
973.0	0.0	0.29132	1.06668	
974.0	0.0	0.29919	1.06549	
975.0	0.0	0.30835	1.06128	
976.0	0.0	0.3186	1.04938	
977.0	0.0	0.32932	1.0459	
978.0	0.0	0.34058	1.03601	
979.0	0.0	0.3512	1.03152	
980.0	0.0	0.36255	1.01898	
981.0	0.0	0.37427	1.01166	
982.0	0.0	0.38525	1.0036	
983.0	0.0	0.39624	0.99463	
984.0	0.0	0.40723	0.9939	
985.0	0.0	0.41821	0.99738	
986.0	0.0	0.42883	0.99976	
987.0	0.0	0.43909	0.9928	
988.0	0.0	0.44989	0.99609	
989.0	0.0	0.46088	0.9906	
990.0	0.0	0.47314	0.98822	
991.0	0.0	0.48486	0.9847	
992.0	0.0	0.49841	0.98181	
993.0	0.0	0.50977	0.98016	
994.0	0.0	0.52039	0.97888	
995.0	0.0	0.52991	0.97247	
996.0	0.0	0.53906	0.97298	
997.0	0.0	0.54932	0.96973	
998.0	0.0	0.55957	0.96753	
999.0	0.0	0.5722	0.95325	
1000.0	0.0	0.58594	0.97266	
1001.0	0.0	0.60095	0.98218	
1002.0	0.0	0.61652	0.99866	
1003.0	0.0	0.63281	1.01825	
1004.0	0.0	0.64856	1.02356	
1005.0	0.0	0.66394	1.04333	
1006.0	0.0	0.6795	1.05029	
1007.0	0.0	0.69434	1.05688	
1008.0	0.0	0.71063	1.04279	
1009.0	0.0	0.7262	1.05194	
1010.0	0.0	0.74121	1.05249	
1011.0	0.0	0.75586	1.05597	
1012.0	0.0	0.77014	1.05212	
1013.0	0.0	0.78479	1.05835	
1014.0	0.0	0.79999	1.06567	
1015.0	0.0	0.81519	1.0882	
1016.0	0.0	0.82983	1.1012	
1017.0	0.0	0.84375	1.11584	
1018.0	0.0	0.85693	1.14038	
1019.0	0.0	0.86938	1.16418	
1020.0	0.0	0.8833	1.17847	
1021.0	0.0	0.89795	1.2019	
1022.0	0.0	0.91333	1.21729	
1023.0	0.0	0.93018	1.2323	
1024.0	0.0	0.94775	1.24823	
1025.0	0.0	0.96552	1.26489	
1026.0	0.0	0.98438	1.27423	
1027.0	0.0	1.00342	1.29053	
1028.0	0.0	1.02338	1.30261	
1029.0	0.0	1.0426	1.30499	
1030.0	0.0	1.06201	1.32587	
1031.0	0.0	1.08105	1.33704	
1032.0	0.0	1.10193	1.33337	
1033.0	0.0	1.12573	1.35498	
1034.0	0.0	1.14697	1.35864	
1035.0	0.0	1.16821	1.35278	
1036.0	0.0	1.18726	1.33484	
1037.0	0.0	1.20593	1.3147	
1038.0	0.0	1.22241	1.2832	
1039.0	0.0	1.23889	1.24384	
1040.0	0.0	1.25464	1.19641	
1041.0	0.0	1.26892	1.15741	
1042.0	0.0	1.28247	1.09497	
1043.0	0.0	1.29529	1.03157	
1044.0	0.0	1.30737	0.95709	
1045.0	0.0	1.31836	0.87891	
1046.0	0.0	1.32825	0.80017	
1047.0	0.0	1.33813	0.72418	
1048.0	0.0	1.34839	0.66174	
1049.0	0.0	1.35645	0.61047	
1050.0	0.0	1.36523	0.54987	
1051.0	0.0	1.37256	0.50848	
1052.0	0.0	1.38098	0.45135	
1053.0	0.0	1.38721	0.41528	
1054.0	0.0	1.3938	0.39697	
1055.0	0.0	1.39966	0.38141	
1056.0	0.0	1.40552	0.38306	
1057.0	0.0	1.41101	0.39368	
1058.0	0.0	1.41614	0.38928	
1059.0	0.0	1.42126	0.40063	
1060.0	0.0	1.42548	0.41931	
1061.0	0.0	1.43005	0.42334	
1062.0	0.0	1.43408	0.42719	
1063.0	0.0	1.43628	0.44312	
1064.0	0.0	1.43665	0.45245	
1065.0	0.0	1.43555	0.4834	
1066.0	0.0	1.43335	0.50537	
1067.0	0.0	1.43188	0.53687	
1068.0	0.0	1.43005	0.58136	
1069.0	0.0	1.42859	0.61926	
1070.0	0.0	1.42676	0.65149	
1071.0	0.0	1.42383	0.68262	
1072.0	0.0	1.4198	0.7002	
1073.0	0.0	1.41248	0.71887	
1074.0	0.0	1.40332	0.72455	
1075.0	0.0	1.3905	0.74103	
1076.0	0.0	1.37256	0.75256	
1077.0	0.0	1.35388	0.76538	
1078.0	0.0	1.33301	0.77948	
1079.0	0.0	1.31177	0.79028	
1080.0	0.0	1.29108	0.79431	
1081.0	0.0	1.27002	0.79358	
1082.0	0.0	1.24768	0.7879	
1083.0	0.0	1.22534	0.78278	
1084.0	0.0	1.2041	0.77747	
1085.0	0.0	1.18286	0.77179	
1086.0	0.0	1.16199	0.76721	
1087.0	0.0	1.14185	0.75989	
1088.0	0.0	1.12134	0.74854	
1089.0	0.0	1.10083	0.73352	
1090.0	0.0	1.07922	0.71246	
1091.0	0.0	1.05725	0.68848	
1092.0	0.0	1.03381	0.65991	
1093.0	0.0	1.00928	0.62961	
1094.0	0.0	0.98621	0.59766	
1095.0	0.0	0.9624	0.56671	
1096.0	0.0	0.94043	0.53687	
1097.0	0.0	0.91864	0.51141	
1098.0	0.0	0.89905	0.48834	
1099.0	0.0	0.88037	0.46893	
1100.0	0.0	0.86206	0.45172	
1101.0	0.0	0.84412	0.43652	
1102.0	0.0	0.82745	0.41803	
1103.0	0.0	0.81006	0.39862	
1104.0	0.0	0.79321	0.38086	
1105.0	0.0	0.77563	0.3587	
1106.0	0.0	0.75879	0.34131	
1107.0	0.0	0.74194	0.31732	
1108.0	0.0	0.72546	0.29645	
1109.0	0.0	0.71082	0.27979	
1110.0	0.0	0.6958	0.26294	
1111.0	0.0	0.68115	0.24426	
1112.0	0.0	0.66724	0.23584	
1113.0	0.0	0.65277	0.22284	
1114.0	0.0	0.63867	0.21259	
1115.0	0.0	0.62292	0.20325	
1116.0	0.0	0.60791	0.19464	
1117.0	0.0	0.59399	0.18713	
1118.0	0.0	0.57788	0.17761	
1119.0	0.0	0.56323	0.16827	
1120.0	0.0	0.54822	0.15747	
1121.0	0.0	0.53467	0.14795	
1122.0	0.0	0.52222	0.14081	
1123.0	0.0	0.50977	0.1333	
1124.0	0.0	0.49731	0.13275	
1125.0	0.0	0.4834	0.1322	
1126.0	0.0	0.46729	0.1366	
1127.0	0.0	0.45081	0.13934	
1128.0	0.0	0.43341	0.14172	
1129.0	0.0	0.41748	0.14117	
1130.0	0.0	0.40137	0.13989	
1131.0	0.0	0.38745	0.13916	
1132.0	0.0	0.3739	0.13605	
1133.0	0.0	0.36072	0.13586	
1134.0	0.0	0.34863	0.13715	
1135.0	0.0	0.33618	0.1366	
1136.0	0.0	0.32391	0.13733	
1137.0	0.0	0.31128	0.13696	
1138.0	0.0	0.29883	0.13861	
1139.0	0.0	0.28638	0.13806	
1140.0	0.0	0.27319	0.14703	
1141.0	0.0	0.25964	0.14612	
1142.0	0.0	0.24683	0.1496	
1143.0	0.0	0.23346	0.15161	
1144.0	0.0	0.22083	0.14319	
1145.0	0.0	0.20947	0.14648	
1146.0	0.0	0.19739	0.14319	
1147.0	0.0	0.18384	0.13367	
1148.0	0.0	0.17139	0.1333	
1149.0	0.0	0.15894	0.12213	
1150.0	0.0	0.14539	0.11499	
1151.0	0.0	0.1322	0.11554	
1152.0	0.0	0.11755	0.11078	
1153.0	0.0	0.10327	0.10858	
1154.0	0.0	0.08899	0.09961	
1155.0	0.0	0.07581	0.1051	
1156.0	0.0	0.06372	0.09613	
1157.0	0.0	0.05292	0.10199	
1158.0	0.0	0.04266	0.10071	
1159.0	0.0	0.03387	0.09888	
1160.0	0.0	0.02563	0.09613	
1161.0	0.0	0.01904	0.09393	
1162.0	0.0	0.01318	0.09119	
1163.0	0.0	0.00934	0.08569	
1164.0	0.0	0.00623	0.09082	
1165.0	0.0	0.00403	0.09467	
1166.0	0.0	0.00165	0.09407	
1167.0	0.0	-0.00037	0.08496	
1168.0	0.0	-0.00146	0.08752	
1169.0	0.0	-0.00256	0.08231	
1170.0	0.0	-0.00275	0.07764	
1171.0	0.0	-0.0022	0.06958	
1172.0	0.0	-0.00183	0.07063	
1173.0	0.0	-0.00073	0.05859	
1174.0	0.0	0.00092	0.0575	
1175.0	0.0	0.00238	0.05292	
1176.0	0.0	0.00439	0.04926	
1177.0	0.0	0.00659	0.04559	
1178.0	0.0	0.00879	0.03845	
1179.0	0.0	0.01208	0.04285	
1180.0	0.0	0.01501	0.04266	
1181.0	0.0	0.01923	0.03809	
1182.0	0.0	0.0238	0.04193	
1183.0	0.0	0.0282	0.04202	
1184.0	0.0	0.03424	0.03479	
1185.0	0.0	0.03918	0.039	
1186.0	0.0	0.04358	0.03864	
1187.0	0.0	0.04834	0.03955	
1188.0	0.0	0.052	0.03735	
1189.0	0.0	0.05566	0.04266	
1190.0	0.0	0.05933	0.03955	
1191.0	0.0	0.06244	0.03699	
1192.0	0.0	0.06445	0.04266	
1193.0	0.0	0.06647	0.04047	
1194.0	0.0	0.06885	0.04156	
1195.0	0.0	0.07324	0.039	
1196.0	0.0	0.07855	0.03369	
1197.0	0.0	0.08423	0.03094	
1198.0	0.0	0.08936	0.03113	
1199.0	0.0	0.09265	0.03259	
1200.0	0.0	0.09558	0.03131	
1201.0	0.0	0.09814	0.02802	
1202.0	0.0	0.10217	0.01959	
1203.0	0.0	0.10767	0.01337	
1204.0	0.0	0.11426	0.00897	
1205.0	0.0	0.12195	0.00989	
1206.0	0.0	0.13074	0.00586	
1207.0	0.0	0.13824	0.00659	
1208.0	0.0	0.14648	0.00751	
1209.0	0.0	0.15427	0.00714	
1210.0	0.0	0.16113	0.00183	
1211.0	0.0	0.16846	0.0022	
1212.0	0.0	0.17505	0.00568	
1213.0	0.0	0.18182	0.0076	
1214.0	0.0	0.18896	0.00934	
1215.0	0.0	0.19556	0.00677	
1216.0	0.0	0.20251	0.00751	
1217.0	0.0	0.20801	0.00439	
1218.0	0.0	0.21387	0.0011	
1219.0	0.0	0.21863	-0.00311	
1220.0	0.0	0.22375	-0.00916	
1221.0	0.0	0.2276	-0.01245	
1222.0	0.0	0.23145	-0.01776	
1223.0	0.0	0.23438	-0.02179	
1224.0	0.0	0.23676	-0.02545	
1225.0	0.0	0.23859	-0.02783	
1226.0	0.0	0.23987	-0.03149	
1227.0	0.0	0.24023	-0.03516	
1228.0	0.0	0.24042	-0.03809	
1229.0	0.0	0.23987	-0.04175	
1230.0	0.0	0.24042	-0.04486	
1231.0	0.0	0.24115	-0.04688	
1232.0	0.0	0.2428	-0.05127	
1233.0	0.0	0.24335	-0.0564	
1234.0	0.0	0.2439	-0.06354	
1235.0	0.0	0.245	-0.06921	
1236.0	0.0	0.24756	-0.07654	
1237.0	0.0	0.25031	-0.08276	
1238.0	0.0	0.25269	-0.08936	
1239.0	0.0	0.2558	-0.09521	
1240.0	0.0	0.25854	-0.09576	
1241.0	0.0	0.26111	-0.10016	
1242.0	0.0	0.26514	-0.10181	
1243.0	0.0	0.2688	-0.10968	
1244.0	0.0	0.27191	-0.11664	
1245.0	0.0	0.27448	-0.12085	
1246.0	0.0	0.27466	-0.12341	
1247.0	0.0	0.27466	-0.12451	
1248.0	0.0	0.27283	-0.13275	
1249.0	0.0	0.27063	-0.1344	
1250.0	0.0	0.26825	-0.13678	
1251.0	0.0	0.26477	-0.13641	
1252.0	0.0	0.26074	-0.12964	
1253.0	0.0	0.25635	-0.12872	
1254.0	0.0	0.25195	-0.11792	
1255.0	0.0	0.24719	-0.11279	
1256.0	0.0	0.24243	-0.10767	
1257.0	0.0	0.23712	-0.10291	
1258.0	0.0	0.23145	-0.09851	
1259.0	0.0	0.22577	-0.09174	
1260.0	0.0	0.22083	-0.07828	
1261.0	0.0	0.21533	-0.05942	
1262.0	0.0	0.20911	-0.04239	
1263.0	0.0	0.20398	-0.03076	
1264.0	0.0	0.19794	-0.0282	
1265.0	0.0	0.19171	-0.02985	
1266.0	0.0	0.18567	-0.03488	
1267.0	0.0	0.17889	-0.04083	
1268.0	0.0	0.1723	-0.04889	
1269.0	0.0	0.16663	-0.05566	
1270.0	0.0	0.1604	-0.06189	
1271.0	0.0	0.15527	-0.07013	
1272.0	0.0	0.15033	-0.07324	
1273.0	0.0	0.14502	-0.07562	
1274.0	0.0	0.13788	-0.07617	
1275.0	0.0	0.12762	-0.07416	
1276.0	0.0	0.11572	-0.07544	
1277.0	0.0	0.10364	-0.08313	
1278.0	0.0	0.09375	-0.09082	
1279.0	0.0	0.08533	-0.10748	
1280.0	0.0	0.07892	-0.12213	
1281.0	0.0	0.07397	-0.13989	
1282.0	0.0	0.06738	-0.15454	
1283.0	0.0	0.06042	-0.16553	
1284.0	0.0	0.05273	-0.17267	
1285.0	0.0	0.04468	-0.17651	
1286.0	0.0	0.03699	-0.17688	
1287.0	0.0	0.03003	-0.17303	
1288.0	0.0	0.02399	-0.16992	
1289.0	0.0	0.01758	-0.16589	
1290.0	0.0	0.01007	-0.16333	
1291.0	0.0	0.00183	-0.16333	
1292.0	0.0	-0.00842	-0.16425	
1293.0	0.0	-0.02014	-0.16589	
1294.0	0.0	-0.03241	-0.16956	
1295.0	0.0	-0.04578	-0.17487	
1296.0	0.0	-0.06189	-0.18402	
1297.0	0.0	-0.078	-0.1864	
1298.0	0.0	-0.09485	-0.18942	
1299.0	0.0	-0.11078	-0.19226	
1300.0	0.0	-0.12744	-0.19537	
1301.0	0.0	-0.14264	-0.19629	
1302.0	0.0	-0.15857	-0.1983	
1303.0	0.0	-0.17413	-0.20581	
1304.0	0.0	-0.1908	-0.20563	
1305.0	0.0	-0.20673	-0.20801	
1306.0	0.0	-0.22137	-0.21359	
1307.0	0.0	-0.23474	-0.21872	
1308.0	0.0	-0.24719	-0.22321	
1309.0	0.0	-0.25891	-0.23163	
1310.0	0.0	-0.27081	-0.24078	
1311.0	0.0	-0.28235	-0.23877	
1312.0	0.0	-0.2937	-0.24536	
1313.0	0.0	-0.30505	-0.25726	
1314.0	0.0	-0.31531	-0.25598	
1315.0	0.0	-0.32446	-0.26642	
1316.0	0.0	-0.33362	-0.27448	
1317.0	0.0	-0.34277	-0.27594	
1318.0	0.0	-0.35156	-0.27997	
1319.0	0.0	-0.36072	-0.27246	
1320.0	0.0	-0.37024	-0.28006	
1321.0	0.0	-0.37903	-0.284	
1322.0	0.0	-0.38837	-0.28839	
1323.0	0.0	-0.39661	-0.29388	
1324.0	0.0	-0.4043	-0.29974	
1325.0	0.0	-0.4118	-0.29883	
1326.0	0.0	-0.41785	-0.29919	
1327.0	0.0	-0.42334	-0.30798	
1328.0	0.0	-0.42938	-0.31201	
1329.0	0.0	-0.43414	-0.31311	
1330.0	0.0	-0.43945	-0.31494	
1331.0	0.0	-0.4444	-0.3219	
1332.0	0.0	-0.44897	-0.32076	
1333.0	0.0	-0.45264	-0.32391	
1334.0	0.0	-0.4563	-0.32739	
1335.0	0.0	-0.45923	-0.3279	
1336.0	0.0	-0.46088	-0.33691	
1337.0	0.0	-0.46307	-0.34113	
1338.0	0.0	-0.46454	-0.34351	
1339.0	0.0	-0.466	-0.35284	
1340.0	0.0	-0.46655	-0.35797	
1341.0	0.0	-0.46619	-0.36475	
1342.0	0.0	-0.4649	-0.36456	
1343.0	0.0	-0.46362	-0.37152	
1344.0	0.0	-0.46234	-0.37152	
1345.0	0.0	-0.46143	-0.38452	
1346.0	0.0	-0.46051	-0.38589	
1347.0	0.0	-0.45941	-0.39258	
1348.0	0.0	-0.4585	-0.39102	
1349.0	0.0	-0.45667	-0.39752	
1350.0	0.0	-0.45355	-0.39899	
1351.0	0.0	-0.44916	-0.401	
1352.0	0.0	-0.4444	-0.40649	
1353.0	0.0	-0.43964	-0.40576	
1354.0	0.0	-0.43707	-0.40942	
1355.0	0.0	-0.43396	-0.41382	
1356.0	0.0	-0.43057	-0.41895	
1357.0	0.0	-0.42627	-0.4184	
1358.0	0.0	-0.41968	-0.42755	
1359.0	0.0	-0.41217	-0.43433	
1360.0	0.0	-0.40448	-0.43854	
1361.0	0.0	-0.39642	-0.44019	
1362.0	0.0	-0.38745	-0.43703	
1363.0	0.0	-0.37848	-0.43506	
1364.0	0.0	-0.36987	-0.43469	
1365.0	0.0	-0.36035	-0.43451	
1366.0	0.0	-0.35101	-0.42773	
1367.0	0.0	-0.34241	-0.42609	
1368.0	0.0	-0.33298	-0.42334	
1369.0	0.0	-0.32373	-0.42032	
1370.0	0.0	-0.31531	-0.42023	
1371.0	0.0	-0.30762	-0.41766	
1372.0	0.0	-0.30048	-0.42096	
1373.0	0.0	-0.29425	-0.42169	
1374.0	0.0	-0.28802	-0.4259	
1375.0	0.0	-0.2818	-0.4325	
1376.0	0.0	-0.27534	-0.43817	
1377.0	0.0	-0.26917	-0.4454	
1378.0	0.0	-0.26367	-0.44806	
1379.0	0.0	-0.25836	-0.45081	
1380.0	0.0	-0.25433	-0.45245	
1381.0	0.0	-0.25195	-0.45245	
1382.0	0.0	-0.25012	-0.45374	
1383.0	0.0	-0.24976	-0.45483	
1384.0	0.0	-0.24994	-0.45662	
1385.0	0.0	-0.24866	-0.4585	
1386.0	0.0	-0.24719	-0.46198	
1387.0	0.0	-0.24408	-0.46417	
1388.0	0.0	-0.24115	-0.46875	
1389.0	0.0	-0.23877	-0.47205	
1390.0	0.0	-0.23767	-0.47498	
1391.0	0.0	-0.23639	-0.47992	
1392.0	0.0	-0.23529	-0.48477	
1393.0	0.0	-0.23419	-0.48853	
1394.0	0.0	-0.23218	-0.49109	
1395.0	0.0	-0.23035	-0.49448	
1396.0	0.0	-0.22888	-0.4953	
1397.0	0.0	-0.2276	-0.49567	
1398.0	0.0	-0.22705	-0.49457	
1399.0	0.0	-0.22687	-0.49548	
1400.0	0.0	-0.22778	-0.49539	
1401.0	0.0	-0.22815	-0.49603	
1402.0	0.0	-0.22888	-0.49713	
1403.0	0.0	-0.22906	-0.49805	
1404.0	0.0	-0.2287	-0.50153	
1405.0	0.0	-0.22833	-0.50203	
1406.0	0.0	-0.22668	-0.505	
1407.0	0.0	-0.22485	-0.50647	
1408.0	0.0	-0.22211	-0.505	
1409.0	0.0	-0.22028	-0.5094	
1410.0	0.0	-0.21753	-0.5094	
1411.0	0.0	-0.2157	-0.5083	
1412.0	0.0	-0.21259	-0.50702	
1413.0	0.0	-0.20984	-0.50217	
1414.0	0.0	-0.20782	-0.50592	
1415.0	0.0	-0.20581	-0.50592	
1416.0	0.0	-0.20435	-0.50702	
1417.0	0.0	-0.20435	-0.50739	
1418.0	0.0	-0.20581	-0.50757	
1419.0	0.0	-0.20801	-0.50354	
1420.0	0.0	-0.21149	-0.50793	
1421.0	0.0	-0.2146	-0.50565	
1422.0	0.0	-0.21863	-0.51086	
1423.0	0.0	-0.22229	-0.50949	
1424.0	0.0	-0.22559	-0.51434	
1425.0	0.0	-0.22925	-0.51508	
1426.0	0.0	-0.23328	-0.51489	
1427.0	0.0	-0.2373	-0.51416	
1428.0	0.0	-0.24078	-0.51544	
1429.0	0.0	-0.24408	-0.51489	
1430.0	0.0	-0.24701	-0.51535	
1431.0	0.0	-0.24939	-0.51617	
1432.0	0.0	-0.25214	-0.51746	
1433.0	0.0	-0.25589	-0.51682	
1434.0	0.0	-0.25964	-0.51466	
1435.0	0.0	-0.2644	-0.51343	
1436.0	0.0	-0.26807	-0.51086	
1437.0	0.0	-0.27209	-0.50876	
1438.0	0.0	-0.27502	-0.50665	
1439.0	0.0	-0.27539	-0.50345	
1440.0	0.0	-0.27521	-0.50189	
1441.0	0.0	-0.27338	-0.49878	
1442.0	0.0	-0.27283	-0.49713	
1443.0	0.0	-0.27283	-0.4942	
1444.0	0.0	-0.27393	-0.49292	
1445.0	0.0	-0.27448	-0.4953	
1446.0	0.0	-0.27356	-0.50006	
1447.0	0.0	-0.27155	-0.50574	
1448.0	0.0	-0.26807	-0.51105	
1449.0	0.0	-0.26385	-0.51379	
1450.0	0.0	-0.25909	-0.51572	
1451.0	0.0	-0.25397	-0.51434	
1452.0	0.0	-0.24902	-0.51324	
1453.0	0.0	-0.24426	-0.51141	
1454.0	0.0	-0.23987	-0.50748	
1455.0	0.0	-0.23602	-0.50134	
1456.0	0.0	-0.23218	-0.49503	
1457.0	0.0	-0.22815	-0.48779	
1458.0	0.0	-0.22412	-0.4856	
1459.0	0.0	-0.21918	-0.48193	
1460.0	0.0	-0.21387	-0.47754	
1461.0	0.0	-0.20728	-0.47369	
1462.0	0.0	-0.2005	-0.47296	
1463.0	0.0	-0.19272	-0.47314	
1464.0	0.0	-0.18567	-0.47406	
1465.0	0.0	-0.17926	-0.47571	
1466.0	0.0	-0.17322	-0.47827	
1467.0	0.0	-0.16718	-0.48413	
1468.0	0.0	-0.16187	-0.48615	
1469.0	0.0	-0.15674	-0.48413	
1470.0	0.0	-0.15198	-0.49054	
1471.0	0.0	-0.14905	-0.49457	
1472.0	0.0	-0.14612	-0.49933	
1473.0	0.0	-0.14465	-0.50317	
1474.0	0.0	-0.14337	-0.51141	
1475.0	0.0	-0.14099	-0.51782	
1476.0	0.0	-0.13788	-0.51965	
1477.0	0.0	-0.13477	-0.52689	
1478.0	0.0	-0.13184	-0.52798	
1479.0	0.0	-0.12909	-0.52441	
1480.0	0.0	-0.12708	-0.52863	
1481.0	0.0	-0.12488	-0.53265	
1482.0	0.0	-0.12378	-0.53632	
1483.0	0.0	-0.12122	-0.54053	
1484.0	0.0	-0.11865	-0.54419	
1485.0	0.0	-0.11609	-0.5451	
1486.0	0.0	-0.11407	-0.54877	
1487.0	0.0	-0.11261	-0.54456	
1488.0	0.0	-0.11206	-0.55096	
1489.0	0.0	-0.11169	-0.54927	
1490.0	0.0	-0.11133	-0.54364	
1491.0	0.0	-0.11023	-0.5484	
1492.0	0.0	-0.1095	-0.55188	
1493.0	0.0	-0.10876	-0.54602	
1494.0	0.0	-0.10693	-0.55261	
1495.0	0.0	-0.1051	-0.55627	
1496.0	0.0	-0.10254	-0.55902	
1497.0	0.0	-0.09924	-0.55701	
1498.0	0.0	-0.09467	-0.55939	
1499.0	0.0	-0.08899	-0.56506	
1500.0	0.0	-0.08368	-0.57056	
1501.0	0.0	-0.078	-0.56552	
1502.0	0.0	-0.07214	-0.57605	
1503.0	0.0	-0.06683	-0.58099	
1504.0	0.0	-0.06152	-0.58228	
1505.0	0.0	-0.0564	-0.59381	
1506.0	0.0	-0.05109	-0.59821	
1507.0	0.0	-0.04578	-0.60104	
1508.0	0.0	-0.04156	-0.60608	
1509.0	0.0	-0.03699	-0.61304	
1510.0	0.0	-0.03296	-0.61624	
1511.0	0.0	-0.02838	-0.62238	
1512.0	0.0	-0.0238	-0.62567	
1513.0	0.0	-0.01886	-0.6351	
1514.0	0.0	-0.01392	-0.64581	
1515.0	0.0	-0.00897	-0.64911	
1516.0	0.0	-0.00403	-0.65973	
1517.0	0.0	0.00018	-0.66248	
1518.0	0.0	0.00403	-0.65845	
1519.0	0.0	0.00806	-0.66925	
1520.0	0.0	0.01218	-0.68079	
1521.0	0.0	0.01611	-0.67932	
1522.0	0.0	0.01996	-0.6795	
1523.0	0.0	0.02417	-0.69653	
1524.0	0.0	0.02765	-0.68939	
1525.0	0.0	0.03094	-0.69525	
1526.0	0.0	0.03333	-0.70221	
1527.0	0.0	0.03625	-0.71228	
1528.0	0.0	0.03918	-0.72162	
1529.0	0.0	0.04175	-0.71759	
1530.0	0.0	0.04431	-0.73663	
1531.0	0.0	0.04742	-0.73178	
1532.0	0.0	0.04889	-0.74707	
1533.0	0.0	0.05127	-0.75577	
1534.0	0.0	0.05273	-0.75943	
1535.0	0.0	0.0542	-0.7663	
1536.0	0.0	0.05493	-0.76538	
1537.0	0.0	0.05713	-0.78076	
1538.0	0.0	0.05933	-0.77948	
1539.0	0.0	0.06152	-0.79568	
1540.0	0.0	0.06207	-0.80493	
1541.0	0.0	0.06226	-0.81024	
1542.0	0.0	0.06116	-0.81775	
1543.0	0.0	0.06061	-0.82141	
1544.0	0.0	0.06024	-0.83093	
1545.0	0.0	0.06317	-0.83203	
1546.0	0.0	0.06647	-0.84814	
1547.0	0.0	0.06921	-0.85107	
1548.0	0.0	0.07178	-0.86041	
1549.0	0.0	0.07379	-0.87415	
1550.0	0.0	0.07507	-0.86966	
1551.0	0.0	0.07709	-0.879	
1552.0	0.0	0.07947	-0.88211	
1553.0	0.0	0.0824	-0.89758	
1554.0	0.0	0.08643	-0.90344	
1555.0	0.0	0.09137	-0.90454	
1556.0	0.0	0.09686	-0.9158	
1557.0	0.0	0.10217	-0.9212	
1558.0	0.0	0.10712	-0.9202	
1559.0	0.0	0.11188	-0.9169	
1560.0	0.0	0.11572	-0.92029	
1561.0	0.0	0.11957	-0.92596	
1562.0	0.0	0.12451	-0.9137	
1563.0	0.0	0.12854	-0.91928	
1564.0	0.0	0.1333	-0.91786	
1565.0	0.0	0.13843	-0.92468	
1566.0	0.0	0.14319	-0.92725	
1567.0	0.0	0.14722	-0.93192	
1568.0	0.0	0.15161	-0.94849	
1569.0	0.0	0.15564	-0.94739	
1570.0	0.0	0.15875	-0.95645	
1571.0	0.0	0.1615	-0.96332	
1572.0	0.0	0.16406	-0.97064	
1573.0	0.0	0.16699	-0.97137	
1574.0	0.0	0.16882	-0.97421	
1575.0	0.0	0.17102	-0.97522	
1576.0	0.0	0.17249	-0.98016	
1577.0	0.0	0.17175	-0.98438	
1578.0	0.0	0.17102	-0.98804	
1579.0	0.0	0.16992	-0.99014	
1580.0	0.0	0.16864	-0.99893	
1581.0	0.0	0.16699	-1.00177	
1582.0	0.0	0.16589	-1.00195	
1583.0	0.0	0.16406	-1.00589	
1584.0	0.0	0.16223	-1.0123	
1585.0	0.0	0.1604	-1.01404	
1586.0	0.0	0.15857	-1.01907	
1587.0	0.0	0.15656	-1.02557	
1588.0	0.0	0.15381	-1.03555	
1589.0	0.0	0.15161	-1.03345	
1590.0	0.0	0.14941	-1.04095	
1591.0	0.0	0.14832	-1.04645	
1592.0	0.0	0.1463	-1.04988	
1593.0	0.0	0.14465	-1.05318	
1594.0	0.0	0.14191	-1.05721	
1595.0	0.0	0.13806	-1.06018	
1596.0	0.0	0.13348	-1.0675	
1597.0	0.0	0.12891	-1.06201	
1598.0	0.0	0.12415	-1.06673	
1599.0	0.0	0.11902	-1.07281	
1600.0	0.0	0.11536	-1.07355	
1601.0	0.0	0.1106	-1.08325	
1602.0	0.0	0.10492	-1.08472	
1603.0	0.0	0.09924	-1.07968	
1604.0	0.0	0.09247	-1.08417	
1605.0	0.0	0.08624	-1.08728	
1606.0	0.0	0.07983	-1.08852	
1607.0	0.0	0.07416	-1.08582	
1608.0	0.0	0.06885	-1.07474	
1609.0	0.0	0.0639	-1.06943	
1610.0	0.0	0.05896	-1.06146	
1611.0	0.0	0.0542	-1.05606	
1612.0	0.0	0.04926	-1.035	
1613.0	0.0	0.04395	-1.01706	
1614.0	0.0	0.03845	-0.98593	
1615.0	0.0	0.03314	-0.94116	
1616.0	0.0	0.02637	-0.9115	
1617.0	0.0	0.02087	-0.87881	
1618.0	0.0	0.01483	-0.82864	
1619.0	0.0	0.00806	-0.78992	
1620.0	0.0	0.00146	-0.75806	
1621.0	0.0	-0.00641	-0.71576	
1622.0	0.0	-0.0152	-0.67511	
1623.0	0.0	-0.02454	-0.63739	
1624.0	0.0	-0.03296	-0.60626	
1625.0	0.0	-0.04156	-0.57642	
1626.0	0.0	-0.04926	-0.55133	
1627.0	0.0	-0.05548	-0.52844	
1628.0	0.0	-0.06244	-0.50592	
1629.0	0.0	-0.06812	-0.49146	
1630.0	0.0	-0.07361	-0.47525	
1631.0	0.0	-0.07764	-0.46234	
1632.0	0.0	-0.08167	-0.44659	
1633.0	0.0	-0.08423	-0.43176	
1634.0	0.0	-0.08606	-0.41235	
1635.0	0.0	-0.08679	-0.39203	
1636.0	0.0	-0.08643	-0.3728	
1637.0	0.0	-0.08533	-0.35394	
1638.0	0.0	-0.08533	-0.34167	
1639.0	0.0	-0.08459	-0.33234	
1640.0	0.0	-0.0845	-0.32318	
1641.0	0.0	-0.08459	-0.3208	
1642.0	0.0	-0.08478	-0.32025	
1643.0	0.0	-0.08459	-0.32135	
1644.0	0.0	-0.08496	-0.32355	
1645.0	0.0	-0.08551	-0.32593	
1646.0	0.0	-0.08716	-0.32739	
1647.0	0.0	-0.08862	-0.33087	
1648.0	0.0	-0.09064	-0.33142	
1649.0	0.0	-0.09155	-0.33179	
1650.0	0.0	-0.08972	-0.32867	
1651.0	0.0	-0.08533	-0.32666	
1652.0	0.0	-0.07947	-0.3186	
1653.0	0.0	-0.07251	-0.30853	
1654.0	0.0	-0.06573	-0.29773	
1655.0	0.0	-0.05859	-0.28391	
1656.0	0.0	-0.05164	-0.26917	
1657.0	0.0	-0.04486	-0.25214	
1658.0	0.0	-0.03662	-0.23227	
1659.0	0.0	-0.02728	-0.20956	
1660.0	0.0	-0.01685	-0.18237	
1661.0	0.0	-0.00513	-0.15601	
1662.0	0.0	0.00732	-0.12213	
1663.0	0.0	0.02032	-0.08844	
1664.0	0.0	0.03278	-0.0542	
1665.0	0.0	0.04596	-0.026	
1666.0	0.0	0.06042	0.01172	
1667.0	0.0	0.07324	0.04688	
1668.0	0.0	0.08716	0.07965	
1669.0	0.0	0.09998	0.10803	
1670.0	0.0	0.11243	0.13733	
1671.0	0.0	0.12415	0.15802	
1672.0	0.0	0.13513	0.18896	
1673.0	0.0	0.14447	0.20233	
1674.0	0.0	0.15308	0.21881	
1675.0	0.0	0.16022	0.24133	
1676.0	0.0	0.16626	0.25049	
1677.0	0.0	0.17084	0.25653	
1678.0	0.0	0.17413	0.26715	
1679.0	0.0	0.17798	0.26385	
1680.0	0.0	0.18274	0.27338	
1681.0	0.0	0.18677	0.26642	
1682.0	0.0	0.19025	0.27191	
1683.0	0.0	0.19281	0.27081	
1684.0	0.0	0.19336	0.26129	
1685.0	0.0	0.19299	0.25763	
1686.0	0.0	0.19135	0.25809	
1687.0	0.0	0.1908	0.24683	
1688.0	0.0	0.18933	0.24298	
1689.0	0.0	0.18823	0.23547	
1690.0	0.0	0.18713	0.22298	
1691.0	0.0	0.18549	0.22229	
1692.0	0.0	0.18311	0.21716	
1693.0	0.0	0.18082	0.20581	
1694.0	0.0	0.17944	0.20361	
1695.0	0.0	0.17688	0.1983	
1696.0	0.0	0.17542	0.19666	
1697.0	0.0	0.17322	0.18842	
1698.0	0.0	0.17065	0.19766	
1699.0	0.0	0.16901	0.19867	
1700.0	0.0	0.16608	0.21588	
1701.0	0.0	0.16333	0.22668	
1702.0	0.0	0.16077	0.2428	
1703.0	0.0	0.1582	0.2558	
1704.0	0.0	0.15417	0.26239	
1705.0	0.0	0.1485	0.27905	
1706.0	0.0	0.14136	0.28839	
1707.0	0.0	0.13147	0.29498	
1708.0	0.0	0.11938	0.29041	
1709.0	0.0	0.10547	0.30176	
1710.0	0.0	0.09064	0.29572	
1711.0	0.0	0.07471	0.30194	
1712.0	0.0	0.05786	0.29004	
1713.0	0.0	0.04102	0.29883	
1714.0	0.0	0.02344	0.29974	
1715.0	0.0	0.00623	0.29187	
1716.0	0.0	-0.01117	0.3056	
1717.0	0.0	-0.02838	0.31201	
1718.0	0.0	-0.04578	0.31165	
1719.0	0.0	-0.06335	0.31769	
1720.0	0.0	-0.08167	0.33508	
1721.0	0.0	-0.10107	0.33636	
1722.0	0.0	-0.12122	0.36182	
1723.0	0.0	-0.14209	0.37006	
1724.0	0.0	-0.16351	0.37811	
1725.0	0.0	-0.18604	0.39404	
1726.0	0.0	-0.20837	0.39716	
1727.0	0.0	-0.22888	0.39258	
1728.0	0.0	-0.24829	0.39075	
1729.0	0.0	-0.2655	0.37262	
1730.0	0.0	-0.28125	0.37134	
1731.0	0.0	-0.29498	0.36694	
1732.0	0.0	-0.30688	0.35028	
1733.0	0.0	-0.31586	0.34845	
1734.0	0.0	-0.32227	0.35303	
1735.0	0.0	-0.32574	0.35028	
1736.0	0.0	-0.32886	0.33179	
1737.0	0.0	-0.33051	0.34314	
1738.0	0.0	-0.3316	0.33655	
1739.0	0.0	-0.3316	0.31293	
1740.0	0.0	-0.33124	0.32135	
1741.0	0.0	-0.32959	0.30121	
1742.0	0.0	-0.32776	0.28876	
1743.0	0.0	-0.3252	0.2796	
1744.0	0.0	-0.32364	0.26056	
1745.0	0.0	-0.32043	0.24225	
1746.0	0.0	-0.3175	0.22156	
1747.0	0.0	-0.31339	0.19757	
1748.0	0.0	-0.30725	0.17029	
1749.0	0.0	-0.30029	0.1398	
1750.0	0.0	-0.29425	0.10785	
1751.0	0.0	-0.28821	0.07434	
1752.0	0.0	-0.28271	0.05585	
1753.0	0.0	-0.27594	0.01556	
1754.0	0.0	-0.26898	-0.00989	
1755.0	0.0	-0.26111	-0.04889	
1756.0	0.0	-0.25195	-0.07104	
1757.0	0.0	-0.24207	-0.10162	
1758.0	0.0	-0.23071	-0.1322	
1759.0	0.0	-0.21936	-0.16296	
1760.0	0.0	-0.20929	-0.20068	
1761.0	0.0	-0.19995	-0.23273	
1762.0	0.0	-0.19153	-0.26111	
1763.0	0.0	-0.18457	-0.29663	
1764.0	0.0	-0.17798	-0.32465	
1765.0	0.0	-0.17175	-0.35504	
1766.0	0.0	-0.16516	-0.38754	
1767.0	0.0	-0.15802	-0.42224	
1768.0	0.0	-0.15115	-0.4574	
1769.0	0.0	-0.1441	-0.49567	
1770.0	0.0	-0.13824	-0.53302	
1771.0	0.0	-0.1322	-0.56049	
1772.0	0.0	-0.12634	-0.5993	
1773.0	0.0	-0.12012	-0.62622	
1774.0	0.0	-0.11298	-0.65405	
1775.0	0.0	-0.1051	-0.67712	
1776.0	0.0	-0.0954	-0.69882	
1777.0	0.0	-0.08487	-0.72546	
1778.0	0.0	-0.07361	-0.74831	
1779.0	0.0	-0.06226	-0.77124	
1780.0	0.0	-0.05273	-0.78278	
1781.0	0.0	-0.04395	-0.79248	
1782.0	0.0	-0.03625	-0.80763	
1783.0	0.0	-0.0293	-0.80457	
1784.0	0.0	-0.02234	-0.80379	
1785.0	0.0	-0.01501	-0.79916	
1786.0	0.0	-0.00806	-0.79962	
1787.0	0.0	-0.00037	-0.79486	
1788.0	0.0	0.00714	-0.8031	
1789.0	0.0	0.01447	-0.80383	
1790.0	0.0	0.01941	-0.8075	
1791.0	0.0	0.0238	-0.82645	
1792.0	0.0	0.02783	-0.82764	
1793.0	0.0	0.03259	-0.82947	
1794.0	0.0	0.03662	-0.83084	
1795.0	0.0	0.04102	-0.83752	
1796.0	0.0	0.04559	-0.82617	
1797.0	0.0	0.04999	-0.81995	
1798.0	0.0	0.05402	-0.81821	
1799.0	0.0	0.05804	-0.81802	
1800.0	0.0	0.06079	-0.81464	
1801.0	0.0	0.0639	-0.81367	
1802.0	0.0	0.0661	-0.82306	
1803.0	0.0	0.06775	-0.83002	
1804.0	0.0	0.07031	-0.83716	
1805.0	0.0	0.07288	-0.84265	
1806.0	0.0	0.07562	-0.8443	
1807.0	0.0	0.0791	-0.84521	
1808.0	0.0	0.08276	-0.83917	
1809.0	0.0	0.08716	-0.83331	
1810.0	0.0	0.09229	-0.82581	
1811.0	0.0	0.0976	-0.82974	
1812.0	0.0	0.10254	-0.82343	
1813.0	0.0	0.10803	-0.8226	
1814.0	0.0	0.11517	-0.8324	
1815.0	0.0	0.1225	-0.83514	
1816.0	0.0	0.12891	-0.84389	
1817.0	0.0	0.13586	-0.83661	
1818.0	0.0	0.14209	-0.84018	
1819.0	0.0	0.14758	-0.84146	
1820.0	0.0	0.15308	-0.84503	
1821.0	0.0	0.15857	-0.83578	
1822.0	0.0	0.16406	-0.83052	
1823.0	0.0	0.16919	-0.83496	
1824.0	0.0	0.17432	-0.83698	
1825.0	0.0	0.18036	-0.83789	
1826.0	0.0	0.18475	-0.84219	
1827.0	0.0	0.19043	-0.82819	
1828.0	0.0	0.19464	-0.83148	
1829.0	0.0	0.19904	-0.83221	
1830.0	0.0	0.20288	-0.81683	
1831.0	0.0	0.20691	-0.81866	
1832.0	0.0	0.2124	-0.81354	
1833.0	0.0	0.21826	-0.80612	
1834.0	0.0	0.22339	-0.80328	
1835.0	0.0	0.22925	-0.80621	
1836.0	0.0	0.23438	-0.81702	
1837.0	0.0	0.23987	-0.81409	
1838.0	0.0	0.245	-0.81573	
1839.0	0.0	0.24939	-0.82507	
1840.0	0.0	0.25562	-0.82416	
1841.0	0.0	0.26202	-0.82379	
1842.0	0.0	0.2688	-0.82791	
1843.0	0.0	0.27631	-0.82338	
1844.0	0.0	0.28436	-0.81189	
1845.0	0.0	0.2915	-0.81079	
1846.0	0.0	0.29736	-0.80484	
1847.0	0.0	0.30432	-0.79559	
1848.0	0.0	0.31128	-0.80109	
1849.0	0.0	0.3197	-0.78278	
1850.0	0.0	0.32776	-0.7804	
1851.0	0.0	0.33728	-0.75961	
1852.0	0.0	0.34753	-0.74854	
1853.0	0.0	0.35852	-0.73645	
1854.0	0.0	0.36951	-0.71356	
1855.0	0.0	0.38013	-0.68994	
1856.0	0.0	0.38928	-0.68646	
1857.0	0.0	0.39642	-0.66467	
1858.0	0.0	0.4021	-0.65735	
1859.0	0.0	0.40576	-0.62759	
1860.0	0.0	0.40814	-0.6167	
1861.0	0.0	0.40979	-0.61377	
1862.0	0.0	0.40961	-0.61505	
1863.0	0.0	0.40942	-0.61853	
1864.0	0.0	0.40906	-0.62631	
1865.0	0.0	0.40979	-0.63098	
1866.0	0.0	0.41034	-0.64046	
1867.0	0.0	0.41162	-0.63776	
1868.0	0.0	0.41345	-0.6394	
1869.0	0.0	0.41528	-0.65057	
1870.0	0.0	0.41748	-0.64142	
1871.0	0.0	0.42078	-0.63812	
1872.0	0.0	0.42407	-0.64243	
1873.0	0.0	0.42847	-0.64188	
1874.0	0.0	0.43213	-0.6416	
1875.0	0.0	0.43671	-0.64893	
1876.0	0.0	0.44092	-0.65643	
1877.0	0.0	0.44604	-0.67566	
1878.0	0.0	0.44971	-0.69031	
1879.0	0.0	0.45264	-0.69342	
1880.0	0.0	0.45593	-0.71576	
1881.0	0.0	0.45776	-0.72089	
1882.0	0.0	0.45776	-0.72995	
1883.0	0.0	0.45758	-0.74231	
1884.0	0.0	0.45667	-0.75009	
1885.0	0.0	0.45483	-0.77509	
1886.0	0.0	0.45135	-0.78351	
1887.0	0.0	0.44824	-0.81061	
1888.0	0.0	0.44348	-0.82654	
1889.0	0.0	0.43781	-0.86385	
1890.0	0.0	0.4314	-0.87689	
1891.0	0.0	0.42389	-0.91003	
1892.0	0.0	0.41656	-0.92212	
1893.0	0.0	0.40997	-0.94226	
1894.0	0.0	0.4043	-0.97119	
1895.0	0.0	0.3999	-0.97943	
1896.0	0.0	0.39679	-1.00296	
1897.0	0.0	0.39368	-1.01825	
1898.0	0.0	0.39075	-1.03052	
1899.0	0.0	0.38763	-1.04828	
1900.0	0.0	0.38342	-1.06183	
1901.0	0.0	0.37921	-1.0816	
1902.0	0.0	0.37427	-1.09515	
1903.0	0.0	0.36914	-1.11374	
1904.0	0.0	0.36438	-1.12349	
1905.0	0.0	0.35962	-1.14148	
1906.0	0.0	0.35522	-1.16043	
1907.0	0.0	0.35156	-1.16528	
1908.0	0.0	0.34937	-1.18057	
1909.0	0.0	0.34717	-1.19156	
1910.0	0.0	0.34552	-1.21344	
1911.0	0.0	0.34277	-1.21664	
1912.0	0.0	0.34003	-1.22337	
1913.0	0.0	0.33618	-1.22937	
1914.0	0.0	0.33234	-1.24617	
1915.0	0.0	0.32739	-1.24232	
1916.0	0.0	0.32227	-1.25203	
1917.0	0.0	0.3175	-1.25455	
1918.0	0.0	0.31274	-1.25995	
1919.0	0.0	0.30835	-1.25995	
1920.0	0.0	0.30432	-1.26018	
1921.0	0.0	0.29883	-1.26192	
1922.0	0.0	0.29242	-1.26288	
1923.0	0.0	0.28455	-1.26434	
1924.0	0.0	0.27594	-1.26256	
1925.0	0.0	0.26825	-1.26324	
1926.0	0.0	0.26221	-1.25986	
1927.0	0.0	0.25671	-1.25464	
1928.0	0.0	0.25305	-1.26187	
1929.0	0.0	0.24994	-1.25116	
1930.0	0.0	0.24518	-1.23944	
1931.0	0.0	0.24023	-1.24049	
1932.0	0.0	0.23438	-1.23926	
1933.0	0.0	0.2298	-1.23518	
1934.0	0.0	0.22485	-1.22447	
1935.0	0.0	0.22119	-1.2187	
1936.0	0.0	0.21826	-1.21614	
1937.0	0.0	0.21716	-1.21216	
1938.0	0.0	0.21698	-1.21033	
1939.0	0.0	0.21826	-1.19481	
1940.0	0.0	0.21954	-1.18048	
1941.0	0.0	0.22064	-1.16231	
1942.0	0.0	0.22192	-1.1358	
1943.0	0.0	0.22339	-1.10449	
1944.0	0.0	0.22632	-1.0751	
1945.0	0.0	0.23401	-1.04196	
1946.0	0.0	0.24646	-0.99948	
1947.0	0.0	0.26221	-0.96881	
1948.0	0.0	0.28052	-0.9256	
1949.0	0.0	0.29919	-0.8952	
1950.0	0.0	0.31714	-0.83675	
1951.0	0.0	0.33325	-0.77692	
1952.0	0.0	0.34863	-0.70322	
1953.0	0.0	0.36255	-0.64893	
1954.0	0.0	0.37445	-0.57843	
1955.0	0.0	0.38672	-0.51379	
1956.0	0.0	0.39606	-0.48065	
1957.0	0.0	0.4043	-0.43762	
1958.0	0.0	0.40979	-0.40723	
1959.0	0.0	0.41418	-0.37189	
1960.0	0.0	0.41748	-0.35815	
1961.0	0.0	0.41748	-0.34131	
1962.0	0.0	0.41473	-0.33563	
1963.0	0.0	0.40723	-0.32703	
1964.0	0.0	0.39587	-0.32172	
1965.0	0.0	0.38251	-0.31787	
1966.0	0.0	0.36694	-0.32629	
1967.0	0.0	0.35046	-0.3252	
1968.0	0.0	0.33325	-0.3457	
1969.0	0.0	0.31567	-0.36163	
1970.0	0.0	0.29736	-0.38342	
1971.0	0.0	0.27832	-0.39606	
1972.0	0.0	0.26074	-0.41803	
1973.0	0.0	0.24426	-0.44183	
1974.0	0.0	0.23016	-0.45483	
1975.0	0.0	0.21643	-0.47168	
1976.0	0.0	0.20306	-0.47845	
1977.0	0.0	0.18951	-0.49072	
1978.0	0.0	0.1767	-0.49951	
1979.0	0.0	0.16443	-0.49146	
1980.0	0.0	0.15344	-0.50226	
1981.0	0.0	0.14319	-0.49841	
1982.0	0.0	0.13293	-0.49841	
1983.0	0.0	0.12231	-0.48779	
1984.0	0.0	0.11206	-0.47205	
1985.0	0.0	0.10144	-0.46408	
1986.0	0.0	0.09009	-0.4519	
1987.0	0.0	0.07672	-0.44183	
1988.0	0.0	0.06409	-0.4325	
1989.0	0.0	0.052	-0.4325	
1990.0	0.0	0.0434	-0.43048	
1991.0	0.0	0.03882	-0.43428	
1992.0	0.0	0.03699	-0.44925	
1993.0	0.0	0.03699	-0.45557	
1994.0	0.0	0.03571	-0.45502	
1995.0	0.0	0.03314	-0.45923	
1996.0	0.0	0.02838	-0.44861	
1997.0	0.0	0.02142	-0.45282	
1998.0	0.0	0.01263	-0.44893	
1999.0	0.0	0.0033	-0.45081	
2000.0	0.0	-0.00641	-0.44119	
2001.0	0.0	-0.01483	-0.44348	
2002.0	0.0	-0.02106	-0.43762	
2003.0	0.0	-0.026	-0.42865	
2004.0	0.0	-0.0293	-0.41968	
2005.0	0.0	-0.03241	-0.41904	
2006.0	0.0	-0.03589	-0.41235	
2007.0	0.0	-0.04028	-0.42206	
2008.0	0.0	-0.04431	-0.43103	
2009.0	0.0	-0.04724	-0.45135	
2010.0	0.0	-0.04962	-0.46967	
2011.0	0.0	-0.0498	-0.48248	
2012.0	0.0	-0.04852	-0.51031	
2013.0	0.0	-0.04688	-0.52148	
2014.0	0.0	-0.04651	-0.54272	
2015.0	0.0	-0.04871	-0.55984	
2016.0	0.0	-0.05273	-0.57138	
2017.0	0.0	-0.05823	-0.5787	
2018.0	0.0	-0.0661	-0.58923	
2019.0	0.0	-0.07452	-0.59509	
2020.0	0.0	-0.08405	-0.59564	
2021.0	0.0	-0.09357	-0.60718	
2022.0	0.0	-0.10272	-0.61377	
2023.0	0.0	-0.1106	-0.62347	
2024.0	0.0	-0.11572	-0.63272	
2025.0	0.0	-0.12048	-0.63831	
2026.0	0.0	-0.12451	-0.64178	
2027.0	0.0	-0.12781	-0.65323	
2028.0	0.0	-0.13129	-0.67017	
2029.0	0.0	-0.13458	-0.67346	
2030.0	0.0	-0.13715	-0.69118	
2031.0	0.0	-0.13916	-0.70587	
2032.0	0.0	-0.14172	-0.711	
2033.0	0.0	-0.14319	-0.71265	
2034.0	0.0	-0.14539	-0.72052	
2035.0	0.0	-0.14722	-0.71136	
2036.0	0.0	-0.14795	-0.72226	
2037.0	0.0	-0.14832	-0.72107	
2038.0	0.0	-0.14832	-0.72144	
2039.0	0.0	-0.14703	-0.72345	
2040.0	0.0	-0.14575	-0.72382	
2041.0	0.0	-0.14392	-0.72089	
2042.0	0.0	-0.14191	-0.73306	
2043.0	0.0	-0.14136	-0.73956	
2044.0	0.0	-0.14044	-0.75513	
2045.0	0.0	-0.14062	-0.76538	
2046.0	0.0	-0.14099	-0.77774	
2047.0	0.0	-0.13989	-0.78983	
2048.0	0.0	-0.13943	-0.79688	
2049.0	0.0	-0.1377	-0.80873	
2050.0	0.0	-0.13531	-0.81683	
2051.0	0.0	-0.13275	-0.82471	
2052.0	0.0	-0.13202	-0.83276	
2053.0	0.0	-0.13458	-0.83093	
2054.0	0.0	-0.14026	-0.83066	
2055.0	0.0	-0.14722	-0.82416	
2056.0	0.0	-0.15344	-0.83414	
2057.0	0.0	-0.15637	-0.83112	
2058.0	0.0	-0.15454	-0.82983	
2059.0	0.0	-0.14594	-0.83945	
2060.0	0.0	-0.13092	-0.83331	
2061.0	0.0	-0.11188	-0.82782	
2062.0	0.0	-0.09375	-0.81573	
2063.0	0.0	-0.07837	-0.80946	
2064.0	0.0	-0.0661	-0.79724	
2065.0	0.0	-0.05841	-0.80438	
2066.0	0.0	-0.05237	-0.81038	
2067.0	0.0	-0.04797	-0.81812	
2068.0	0.0	-0.04431	-0.82956	
2069.0	0.0	-0.04102	-0.84888	
2070.0	0.0	-0.03918	-0.8692	
2071.0	0.0	-0.03772	-0.88477	
2072.0	0.0	-0.03662	-0.90564	
2073.0	0.0	-0.0368	-0.92358	
2074.0	0.0	-0.03644	-0.93256	
2075.0	0.0	-0.03644	-0.93219	
2076.0	0.0	-0.03516	-0.93906	
2077.0	0.0	-0.03204	-0.93768	
2078.0	0.0	-0.02637	-0.93558	
2079.0	0.0	-0.01685	-0.92715	
2080.0	0.0	-0.00549	-0.92812	
2081.0	0.0	0.00769	-0.9158	
2082.0	0.0	0.02069	-0.91113	
2083.0	0.0	0.03296	-0.91328	
2084.0	0.0	0.04614	-0.90907	
2085.0	0.0	0.0575	-0.91653	
2086.0	0.0	0.06885	-0.92065	
2087.0	0.0	0.07874	-0.93063	
2088.0	0.0	0.08789	-0.9364	
2089.0	0.0	0.09686	-0.94739	
2090.0	0.0	0.1062	-0.96295	
2091.0	0.0	0.11499	-0.96478	
2092.0	0.0	0.12177	-0.97298	
2093.0	0.0	0.12744	-0.96455	
2094.0	0.0	0.13147	-0.95856	
2095.0	0.0	0.13495	-0.95508	
2096.0	0.0	0.13806	-0.93292	
2097.0	0.0	0.14209	-0.91937	
2098.0	0.0	0.14648	-0.90985	
2099.0	0.0	0.14941	-0.89044	
2100.0	0.0	0.15161	-0.88875	
2101.0	0.0	0.15161	-0.87589	
2102.0	0.0	0.15143	-0.87964	
2103.0	0.0	0.14941	-0.88458	
2104.0	0.0	0.14539	-0.88907	
2105.0	0.0	0.14081	-0.88376	
2106.0	0.0	0.1344	-0.89008	
2107.0	0.0	0.12671	-0.88275	
2108.0	0.0	0.11865	-0.86655	
2109.0	0.0	0.1106	-0.85396	
2110.0	0.0	0.10254	-0.84393	
2111.0	0.0	0.09457	-0.82947	
2112.0	0.0	0.08826	-0.8063	
2113.0	0.0	0.0824	-0.79971	
2114.0	0.0	0.07727	-0.78534	
2115.0	0.0	0.07361	-0.77161	
2116.0	0.0	0.07068	-0.75275	
2117.0	0.0	0.06812	-0.72729	
2118.0	0.0	0.06537	-0.70624	
2119.0	0.0	0.06409	-0.68271	
2120.0	0.0	0.06226	-0.67044	
2121.0	0.0	0.06006	-0.65826	
2122.0	0.0	0.05731	-0.6535	
2123.0	0.0	0.05566	-0.64362	
2124.0	0.0	0.05566	-0.64252	
2125.0	0.0	0.05896	-0.64847	
2126.0	0.0	0.06189	-0.64005	
2127.0	0.0	0.06555	-0.64709	
2128.0	0.0	0.06812	-0.64334	
2129.0	0.0	0.06976	-0.64069	
2130.0	0.0	0.06958	-0.64307	
2131.0	0.0	0.06866	-0.63702	
2132.0	0.0	0.06812	-0.63657	
2133.0	0.0	0.06738	-0.63593	
2134.0	0.0	0.06885	-0.63748	
2135.0	0.0	0.07159	-0.63318	
2136.0	0.0	0.07471	-0.64691	
2137.0	0.0	0.07782	-0.65359	
2138.0	0.0	0.07947	-0.65607	
2139.0	0.0	0.08075	-0.65753	
2140.0	0.0	0.08167	-0.65588	
2141.0	0.0	0.08276	-0.6449	
2142.0	0.0	0.0835	-0.65863	
2143.0	0.0	0.08405	-0.66174	
2144.0	0.0	0.08423	-0.66559	
2145.0	0.0	0.0835	-0.67506	
2146.0	0.0	0.08386	-0.68179	
2147.0	0.0	0.0835	-0.70184	
2148.0	0.0	0.08276	-0.70953	
2149.0	0.0	0.08203	-0.71484	
2150.0	0.0	0.0824	-0.73462	
2151.0	0.0	0.08203	-0.73792	
2152.0	0.0	0.08148	-0.74634	
2153.0	0.0	0.0813	-0.74615	
2154.0	0.0	0.08112	-0.7467	
2155.0	0.0	0.0813	-0.72968	
2156.0	0.0	0.08203	-0.73004	
2157.0	0.0	0.08386	-0.73132	
2158.0	0.0	0.08844	-0.71814	
2159.0	0.0	0.09375	-0.72253	
2160.0	0.0	0.10034	-0.71759	
2161.0	0.0	0.10693	-0.70844	
2162.0	0.0	0.11169	-0.70752	
2163.0	0.0	0.11481	-0.7002	
2164.0	0.0	0.11737	-0.70056	
2165.0	0.0	0.12012	-0.68555	
2166.0	0.0	0.12323	-0.68069	
2167.0	0.0	0.12744	-0.6817	
2168.0	0.0	0.13184	-0.69214	
2169.0	0.0	0.13623	-0.69415	
2170.0	0.0	0.13989	-0.68921	
2171.0	0.0	0.14264	-0.69745	
2172.0	0.0	0.14502	-0.70358	
2173.0	0.0	0.1474	-0.70404	
2174.0	0.0	0.14868	-0.70074	
2175.0	0.0	0.14978	-0.70532	
2176.0	0.0	0.15088	-0.69919	
2177.0	0.0	0.15289	-0.70871	
2178.0	0.0	0.15454	-0.70642	
2179.0	0.0	0.15674	-0.70807	
2180.0	0.0	0.15784	-0.70093	
2181.0	0.0	0.15894	-0.71136	
2182.0	0.0	0.1593	-0.71429	
2183.0	0.0	0.16003	-0.71869	
2184.0	0.0	0.15985	-0.73059	
2185.0	0.0	0.16003	-0.74075	
2186.0	0.0	0.16003	-0.75275	
2187.0	0.0	0.15894	-0.76923	
2188.0	0.0	0.1582	-0.78497	
2189.0	0.0	0.15619	-0.7868	
2190.0	0.0	0.15454	-0.80319	
2191.0	0.0	0.15381	-0.81281	
2192.0	0.0	0.15399	-0.81812	
2193.0	0.0	0.15491	-0.82544	
2194.0	0.0	0.15765	-0.81464	
2195.0	0.0	0.1615	-0.82407	
2196.0	0.0	0.16736	-0.81729	
2197.0	0.0	0.17395	-0.81876	
2198.0	0.0	0.18054	-0.82581	
2199.0	0.0	0.18768	-0.82576	
2200.0	0.0	0.19446	-0.82654	
2201.0	0.0	0.20105	-0.82141	
2202.0	0.0	0.20746	-0.81555	
2203.0	0.0	0.2124	-0.8172	
2204.0	0.0	0.21533	-0.81171	
2205.0	0.0	0.2179	-0.81976	
2206.0	0.0	0.21936	-0.82846	
2207.0	0.0	0.22083	-0.83102	
2208.0	0.0	0.22211	-0.83057	
2209.0	0.0	0.22339	-0.82654	
2210.0	0.0	0.22394	-0.82819	
2211.0	0.0	0.22485	-0.82562	
2212.0	0.0	0.22522	-0.82645	
2213.0	0.0	0.22742	-0.81702	
2214.0	0.0	0.22925	-0.82173	
2215.0	0.0	0.23328	-0.82635	
2216.0	0.0	0.23859	-0.82471	
2217.0	0.0	0.24426	-0.82251	
2218.0	0.0	0.24976	-0.82736	
2219.0	0.0	0.2558	-0.8335	
2220.0	0.0	0.26184	-0.83698	
2221.0	0.0	0.27008	-0.84741	
2222.0	0.0	0.27942	-0.84393	
2223.0	0.0	0.29041	-0.85977	
2224.0	0.0	0.30176	-0.85822	
2225.0	0.0	0.31421	-0.8595	
2226.0	0.0	0.32629	-0.86545	
2227.0	0.0	0.34058	-0.86865	
2228.0	0.0	0.35449	-0.87625	
2229.0	0.0	0.36987	-0.86023	
2230.0	0.0	0.38525	-0.85945	
2231.0	0.0	0.3999	-0.8595	
2232.0	0.0	0.41272	-0.83826	
2233.0	0.0	0.42426	-0.82947	
2234.0	0.0	0.43469	-0.82416	
2235.0	0.0	0.44275	-0.821	
2236.0	0.0	0.45007	-0.81198	
2237.0	0.0	0.45667	-0.8226	
2238.0	0.0	0.46307	-0.82104	
2239.0	0.0	0.47021	-0.82141	
2240.0	0.0	0.47662	-0.83093	
2241.0	0.0	0.48175	-0.83038	
2242.0	0.0	0.48486	-0.84375	
2243.0	0.0	0.48651	-0.85144	
2244.0	0.0	0.48633	-0.86197	
2245.0	0.0	0.48633	-0.87598	
2246.0	0.0	0.48486	-0.88623	
2247.0	0.0	0.48486	-0.89749	
2248.0	0.0	0.4856	-0.90756	
2249.0	0.0	0.48596	-0.9212	
2250.0	0.0	0.48743	-0.91681	
2251.0	0.0	0.48779	-0.9147	
2252.0	0.0	0.48669	-0.91003	
2253.0	0.0	0.48175	-0.90198	
2254.0	0.0	0.47314	-0.87955	
2255.0	0.0	0.46326	-0.85181	
2256.0	0.0	0.45337	-0.84329	
2257.0	0.0	0.44366	-0.81683	
2258.0	0.0	0.43433	-0.80951	
2259.0	0.0	0.42627	-0.79248	
2260.0	0.0	0.41821	-0.77637	
2261.0	0.0	0.41089	-0.75288	
2262.0	0.0	0.40356	-0.73572	
2263.0	0.0	0.39661	-0.72144	
2264.0	0.0	0.38892	-0.7012	
2265.0	0.0	0.38306	-0.67969	
2266.0	0.0	0.37665	-0.66046	
2267.0	0.0	0.37061	-0.64783	
2268.0	0.0	0.36493	-0.63007	
2269.0	0.0	0.35999	-0.6351	
2270.0	0.0	0.35669	-0.6178	
2271.0	0.0	0.35284	-0.62659	
2272.0	0.0	0.34827	-0.62311	
2273.0	0.0	0.34277	-0.62851	
2274.0	0.0	0.33508	-0.63345	
2275.0	0.0	0.32739	-0.62173	
2276.0	0.0	0.3197	-0.62027	
2277.0	0.0	0.31458	-0.61725	
2278.0	0.0	0.31128	-0.60864	
2279.0	0.0	0.3089	-0.58722	
2280.0	0.0	0.30597	-0.57385	
2281.0	0.0	0.30286	-0.54337	
2282.0	0.0	0.29883	-0.5153	
2283.0	0.0	0.29443	-0.48376	
2284.0	0.0	0.28857	-0.46912	
2285.0	0.0	0.28217	-0.44348	
2286.0	0.0	0.27539	-0.43469	
2287.0	0.0	0.2688	-0.41785	
2288.0	0.0	0.26404	-0.41153	
2289.0	0.0	0.25891	-0.40265	
2290.0	0.0	0.25269	-0.39697	
2291.0	0.0	0.2439	-0.39313	
2292.0	0.0	0.23364	-0.38416	
2293.0	0.0	0.22302	-0.38507	
2294.0	0.0	0.21167	-0.39624	
2295.0	0.0	0.20105	-0.41144	
2296.0	0.0	0.18933	-0.41702	
2297.0	0.0	0.17596	-0.4433	
2298.0	0.0	0.16223	-0.47058	
2299.0	0.0	0.14868	-0.4931	
2300.0	0.0	0.13568	-0.51471	
2301.0	0.0	0.12488	-0.53412	
2302.0	0.0	0.11591	-0.54199	
2303.0	0.0	0.1073	-0.55948	
2304.0	0.0	0.09851	-0.57504	
2305.0	0.0	0.08899	-0.58484	
2306.0	0.0	0.07874	-0.59399	
2307.0	0.0	0.06848	-0.60956	
2308.0	0.0	0.05804	-0.6123	
2309.0	0.0	0.04834	-0.62448	
2310.0	0.0	0.03809	-0.63556	
2311.0	0.0	0.02893	-0.6384	
2312.0	0.0	0.02142	-0.63501	
2313.0	0.0	0.0174	-0.63977	
2314.0	0.0	0.01465	-0.62952	
2315.0	0.0	0.01117	-0.63043	
2316.0	0.0	0.00659	-0.63625	
2317.0	0.0	-0.00073	-0.63318	
2318.0	0.0	-0.01025	-0.63904	
2319.0	0.0	-0.01978	-0.63831	
2320.0	0.0	-0.0293	-0.63391	
2321.0	0.0	-0.03662	-0.63849	
2322.0	0.0	-0.04395	-0.63721	
2323.0	0.0	-0.0509	-0.63281	
2324.0	0.0	-0.05823	-0.6264	
2325.0	0.0	-0.06372	-0.63153	
2326.0	0.0	-0.06921	-0.62347	
2327.0	0.0	-0.07178	-0.62659	
2328.0	0.0	-0.07178	-0.63094	
2329.0	0.0	-0.06866	-0.62489	
2330.0	0.0	-0.06299	-0.61523	
2331.0	0.0	-0.05511	-0.59912	
2332.0	0.0	-0.04578	-0.60315	
2333.0	0.0	-0.03497	-0.59711	
2334.0	0.0	-0.02362	-0.5993	
2335.0	0.0	-0.01108	-0.59885	
2336.0	0.0	0.00146	-0.60223	
2337.0	0.0	0.01318	-0.59473	
2338.0	0.0	0.02417	-0.59564	
2339.0	0.0	0.03442	-0.59381	
2340.0	0.0	0.04248	-0.60315	
2341.0	0.0	0.0498	-0.59674	
2342.0	0.0	0.05347	-0.58081	
2343.0	0.0	0.05402	-0.57532	
2344.0	0.0	0.05237	-0.57092	
2345.0	0.0	0.04688	-0.56104	
2346.0	0.0	0.03809	-0.56117	
2347.0	0.0	0.02856	-0.55225	
2348.0	0.0	0.01611	-0.55573	
2349.0	0.0	0.0022	-0.56561	
2350.0	0.0	-0.01172	-0.5744	
2351.0	0.0	-0.026	-0.57605	
2352.0	0.0	-0.03992	-0.57861	
2353.0	0.0	-0.05237	-0.57935	
2354.0	0.0	-0.06445	-0.58282	
2355.0	0.0	-0.07617	-0.58411	
2356.0	0.0	-0.08734	-0.58008	
2357.0	0.0	-0.09558	-0.59161	
2358.0	0.0	-0.10364	-0.58923	
2359.0	0.0	-0.10895	-0.59308	
2360.0	0.0	-0.11188	-0.60223	
2361.0	0.0	-0.11316	-0.60132	
2362.0	0.0	-0.11353	-0.60452	
2363.0	0.0	-0.11224	-0.5993	
2364.0	0.0	-0.11096	-0.60059	
2365.0	0.0	-0.10931	-0.59821	
2366.0	0.0	-0.10693	-0.59528	
2367.0	0.0	-0.104	-0.5918	
2368.0	0.0	-0.10107	-0.59912	
2369.0	0.0	-0.09741	-0.5907	
2370.0	0.0	-0.09357	-0.60132	
2371.0	0.0	-0.09009	-0.6059	
2372.0	0.0	-0.08661	-0.60974	
2373.0	0.0	-0.08148	-0.60306	
2374.0	0.0	-0.07654	-0.61322	
2375.0	0.0	-0.07123	-0.61835	
2376.0	0.0	-0.06482	-0.62274	
2377.0	0.0	-0.05777	-0.62823	
2378.0	0.0	-0.05072	-0.63391	
2379.0	0.0	-0.0434	-0.64307	
2380.0	0.0	-0.03516	-0.64618	
2381.0	0.0	-0.02692	-0.66623	
2382.0	0.0	-0.01904	-0.68079	
2383.0	0.0	-0.01025	-0.69447	
2384.0	0.0	0.0	-0.69992	
2385.0	0.0	0.01392	-0.71512	
2386.0	0.0	0.02893	-0.71887	
2387.0	0.0	0.04486	-0.72455	
2388.0	0.0	0.05988	-0.7337	
2389.0	0.0	0.07214	-0.73975	
2390.0	0.0	0.08313	-0.74734	
2391.0	0.0	0.09412	-0.75403	
2392.0	0.0	0.10547	-0.7803	
2393.0	0.0	0.1181	-0.79385	
2394.0	0.0	0.13184	-0.81345	
2395.0	0.0	0.14575	-0.83267	
2396.0	0.0	0.15967	-0.84979	
2397.0	0.0	0.17175	-0.85794	
2398.0	0.0	0.18256	-0.88147	
2399.0	0.0	0.19171	-0.88692	
2400.0	0.0	0.19922	-0.89081	
2401.0	0.0	0.20508	-0.89172	
2402.0	0.0	0.20947	-0.89575	
2403.0	0.0	0.21387	-0.89117	
2404.0	0.0	0.21844	-0.88202	
2405.0	0.0	0.22119	-0.8703	
2406.0	0.0	0.22229	-0.86517	
2407.0	0.0	0.21899	-0.86092	
2408.0	0.0	0.21286	-0.84851	
2409.0	0.0	0.20471	-0.83112	
2410.0	0.0	0.19592	-0.82361	
2411.0	0.0	0.18896	-0.80823	
2412.0	0.0	0.18384	-0.79834	
2413.0	0.0	0.17688	-0.78516	
2414.0	0.0	0.16479	-0.77032	
2415.0	0.0	0.14648	-0.75769	
2416.0	0.0	0.12231	-0.72491	
2417.0	0.0	0.09485	-0.68967	
2418.0	0.0	0.06592	-0.65854	
2419.0	0.0	0.03735	-0.60754	
2420.0	0.0	0.0119	-0.56067	
2421.0	0.0	-0.01135	-0.49677	
2422.0	0.0	-0.03333	-0.44431	
2423.0	0.0	-0.0531	-0.38434	
2424.0	0.0	-0.07288	-0.32959	
2425.0	0.0	-0.09119	-0.27814	
2426.0	0.0	-0.11023	-0.23328	
2427.0	0.0	-0.12891	-0.19006	
2428.0	0.0	-0.14758	-0.14996	
2429.0	0.0	-0.16571	-0.10565	
2430.0	0.0	-0.18274	-0.07269	
2431.0	0.0	-0.19904	-0.03387	
2432.0	0.0	-0.21552	0.00568	
2433.0	0.0	-0.23071	0.04303	
2434.0	0.0	-0.24646	0.07086	
2435.0	0.0	-0.26074	0.0954	
2436.0	0.0	-0.27502	0.11682	
2437.0	0.0	-0.28876	0.12762	
2438.0	0.0	-0.30341	0.14795	
2439.0	0.0	-0.31915	0.1582	
2440.0	0.0	-0.33618	0.16278	
2441.0	0.0	-0.35303	0.16827	
2442.0	0.0	-0.37079	0.17358	
2443.0	0.0	-0.38727	0.18237	
2444.0	0.0	-0.4032	0.18109	
2445.0	0.0	-0.41803	0.16438	
2446.0	0.0	-0.43231	0.15802	
2447.0	0.0	-0.44586	0.1442	
2448.0	0.0	-0.45813	0.1344	
2449.0	0.0	-0.46875	0.11224	
2450.0	0.0	-0.47809	0.08862	
2451.0	0.0	-0.48486	0.05841	
2452.0	0.0	-0.48962	0.02911	
2453.0	0.0	-0.492	0.00824	
2454.0	0.0	-0.49036	-0.02747	
2455.0	0.0	-0.48615	-0.04871	
2456.0	0.0	-0.48102	-0.07745	
2457.0	0.0	-0.47498	-0.11536	
2458.0	0.0	-0.46893	-0.1485	
2459.0	0.0	-0.46326	-0.17688	
2460.0	0.0	-0.45703	-0.20801	
2461.0	0.0	-0.44897	-0.25269	
2462.0	0.0	-0.43964	-0.27887	
2463.0	0.0	-0.42792	-0.31476	
2464.0	0.0	-0.41547	-0.34424	
2465.0	0.0	-0.3999	-0.3717	
2466.0	0.0	-0.38306	-0.3988	
2467.0	0.0	-0.36493	-0.4216	
2468.0	0.0	-0.34607	-0.44788	
2469.0	0.0	-0.32794	-0.46857	
2470.0	0.0	-0.31	-0.49109	
2471.0	0.0	-0.29297	-0.51123	
2472.0	0.0	-0.27576	-0.53412	
2473.0	0.0	-0.25946	-0.55627	
2474.0	0.0	-0.24353	-0.5712	
2475.0	0.0	-0.22852	-0.59253	
2476.0	0.0	-0.2146	-0.61194	
2477.0	0.0	-0.2027	-0.6264	
2478.0	0.0	-0.19226	-0.64087	
2479.0	0.0	-0.18311	-0.65424	
2480.0	0.0	-0.17468	-0.6676	
2481.0	0.0	-0.16754	-0.66943	
2482.0	0.0	-0.16223	-0.68427	
2483.0	0.0	-0.1582	-0.69507	
2484.0	0.0	-0.15527	-0.70258	
2485.0	0.0	-0.15363	-0.70459	
2486.0	0.0	-0.15381	-0.71274	
2487.0	0.0	-0.15454	-0.70889	
2488.0	0.0	-0.15582	-0.72052	
2489.0	0.0	-0.15637	-0.71741	
2490.0	0.0	-0.15674	-0.72308	
2491.0	0.0	-0.15692	-0.71713	
2492.0	0.0	-0.1582	-0.72949	
2493.0	0.0	-0.1604	-0.73535	
2494.0	0.0	-0.16315	-0.73242	
2495.0	0.0	-0.16571	-0.74506	
2496.0	0.0	-0.16846	-0.7489	
2497.0	0.0	-0.17139	-0.75128	
2498.0	0.0	-0.17487	-0.75952	
2499.0	0.0	-0.17871	-0.75696	
2500.0	0.0	-0.18347	-0.76099	
2501.0	0.0	-0.1886	-0.76392	
2502.0	0.0	-0.19336	-0.75412	
2503.0	0.0	-0.19775	-0.75732	
2504.0	0.0	-0.20123	-0.76501	
2505.0	0.0	-0.20306	-0.76263	
2506.0	0.0	-0.20471	-0.76309	
2507.0	0.0	-0.20599	-0.75623	
2508.0	0.0	-0.20709	-0.76428	
2509.0	0.0	-0.20801	-0.7652	
2510.0	0.0	-0.20984	-0.76643	
2511.0	0.0	-0.21167	-0.75751	
2512.0	0.0	-0.2135	-0.76044	
2513.0	0.0	-0.2168	-0.75879	
2514.0	0.0	-0.22083	-0.75842	
2515.0	0.0	-0.22549	-0.75833	
2516.0	0.0	-0.2309	-0.75714	
2517.0	0.0	-0.23547	-0.75366	
2518.0	0.0	-0.2384	-0.74286	
2519.0	0.0	-0.24097	-0.7413	
2520.0	0.0	-0.24445	-0.72963	
2521.0	0.0	-0.24902	-0.71658	
2522.0	0.0	-0.25433	-0.70221	
2523.0	0.0	-0.26001	-0.68628	
2524.0	0.0	-0.26514	-0.67731	
2525.0	0.0	-0.27045	-0.67072	
2526.0	0.0	-0.27502	-0.66129	
2527.0	0.0	-0.27979	-0.64577	
2528.0	0.0	-0.28409	-0.64069	
2529.0	0.0	-0.28748	-0.63936	
2530.0	0.0	-0.28967	-0.63721	
2531.0	0.0	-0.29077	-0.63098	
2532.0	0.0	-0.29132	-0.63245	
2533.0	0.0	-0.29242	-0.6329	
2534.0	0.0	-0.29297	-0.63171	
2535.0	0.0	-0.29388	-0.62769	
2536.0	0.0	-0.29407	-0.62933	
2537.0	0.0	-0.29407	-0.62512	
2538.0	0.0	-0.29443	-0.6308	
2539.0	0.0	-0.29388	-0.63702	
2540.0	0.0	-0.29333	-0.64142	
2541.0	0.0	-0.29224	-0.64435	
2542.0	0.0	-0.29178	-0.65167	
2543.0	0.0	-0.29114	-0.65405	
2544.0	0.0	-0.29059	-0.65726	
2545.0	0.0	-0.29077	-0.66586	
2546.0	0.0	-0.29205	-0.6676	
2547.0	0.0	-0.29462	-0.66394	
2548.0	0.0	-0.29846	-0.66302	
2549.0	0.0	-0.30359	-0.66376	
2550.0	0.0	-0.30945	-0.66733	
2551.0	0.0	-0.31458	-0.66211	
2552.0	0.0	-0.32007	-0.66339	
2553.0	0.0	-0.32446	-0.66193	
2554.0	0.0	-0.32922	-0.65936	
2555.0	0.0	-0.33325	-0.66714	
2556.0	0.0	-0.33838	-0.67072	
2557.0	0.0	-0.34241	-0.68372	
2558.0	0.0	-0.34717	-0.69287	
2559.0	0.0	-0.3512	-0.70276	
2560.0	0.0	-0.35632	-0.70853	
2561.0	0.0	-0.36108	-0.71786	
2562.0	0.0	-0.3653	-0.72455	
2563.0	0.0	-0.36969	-0.7289	
2564.0	0.0	-0.37299	-0.73169	
2565.0	0.0	-0.3761	-0.73416	
2566.0	0.0	-0.37793	-0.73965	
2567.0	0.0	-0.37939	-0.73993	
2568.0	0.0	-0.37939	-0.73828	
2569.0	0.0	-0.37903	-0.74286	
2570.0	0.0	-0.37811	-0.74103	
2571.0	0.0	-0.37701	-0.73581	
2572.0	0.0	-0.37646	-0.73169	
2573.0	0.0	-0.3761	-0.72784	
2574.0	0.0	-0.3761	-0.72839	
2575.0	0.0	-0.37646	-0.72034	
2576.0	0.0	-0.37866	-0.72675	
2577.0	0.0	-0.38104	-0.72729	
2578.0	0.0	-0.38324	-0.7278	
2579.0	0.0	-0.38489	-0.72354	
2580.0	0.0	-0.38416	-0.72482	
2581.0	0.0	-0.38251	-0.72519	
2582.0	0.0	-0.37921	-0.71832	
2583.0	0.0	-0.37665	-0.70413	
2584.0	0.0	-0.37518	-0.6991	
2585.0	0.0	-0.37518	-0.68774	
2586.0	0.0	-0.37573	-0.67273	
2587.0	0.0	-0.37537	-0.65607	
2588.0	0.0	-0.37408	-0.64178	
2589.0	0.0	-0.37024	-0.62384	
2590.0	0.0	-0.36273	-0.61148	
2591.0	0.0	-0.35248	-0.59473	
2592.0	0.0	-0.33893	-0.58154	
2593.0	0.0	-0.32263	-0.56927	
2594.0	0.0	-0.30469	-0.55811	
2595.0	0.0	-0.28638	-0.54712	
2596.0	0.0	-0.26807	-0.53595	
2597.0	0.0	-0.25012	-0.5246	
2598.0	0.0	-0.23291	-0.51544	
2599.0	0.0	-0.2146	-0.5105	
2600.0	0.0	-0.19629	-0.50995	
2601.0	0.0	-0.17725	-0.51361	
2602.0	0.0	-0.1571	-0.51654	
2603.0	0.0	-0.13623	-0.52313	
2604.0	0.0	-0.11499	-0.52982	
2605.0	0.0	-0.09302	-0.53925	
2606.0	0.0	-0.07104	-0.54749	
2607.0	0.0	-0.04907	-0.55811	
2608.0	0.0	-0.0271	-0.57266	
2609.0	0.0	-0.00586	-0.57706	
2610.0	0.0	0.01465	-0.58841	
2611.0	0.0	0.03461	-0.59198	
2612.0	0.0	0.0542	-0.60022	
2613.0	0.0	0.07324	-0.61963	
2614.0	0.0	0.091	-0.63391	
2615.0	0.0	0.1095	-0.64233	
2616.0	0.0	0.12964	-0.65451	
2617.0	0.0	0.14978	-0.65918	
2618.0	0.0	0.17084	-0.67648	
2619.0	0.0	0.19244	-0.68683	
2620.0	0.0	0.21332	-0.69809	
2621.0	0.0	0.23364	-0.70752	
2622.0	0.0	0.25232	-0.71924	
2623.0	0.0	0.27118	-0.73608	
2624.0	0.0	0.28931	-0.74744	
2625.0	0.0	0.30707	-0.7533	
2626.0	0.0	0.32318	-0.76483	
2627.0	0.0	0.33838	-0.76767	
2628.0	0.0	0.35193	-0.78186	
2629.0	0.0	0.36493	-0.78699	
2630.0	0.0	0.37683	-0.789	
2631.0	0.0	0.38782	-0.79834	
2632.0	0.0	0.39716	-0.79349	
2633.0	0.0	0.40631	-0.80045	
2634.0	0.0	0.41492	-0.78918	
2635.0	0.0	0.42316	-0.80237	
2636.0	0.0	0.43085	-0.80182	
2637.0	0.0	0.43835	-0.79541	
2638.0	0.0	0.44458	-0.78946	
2639.0	0.0	0.45062	-0.79156	
2640.0	0.0	0.45557	-0.78131	
2641.0	0.0	0.45996	-0.77815	
2642.0	0.0	0.46381	-0.76831	
2643.0	0.0	0.46729	-0.763	
2644.0	0.0	0.46948	-0.75952	
2645.0	0.0	0.46948	-0.75751	
2646.0	0.0	0.46857	-0.75769	
2647.0	0.0	0.4671	-0.76575	
2648.0	0.0	0.46619	-0.78113	
2649.0	0.0	0.46527	-0.78699	
2650.0	0.0	0.46472	-0.79156	
2651.0	0.0	0.46179	-0.79056	
2652.0	0.0	0.45776	-0.79852	
2653.0	0.0	0.45117	-0.7955	
2654.0	0.0	0.44385	-0.80466	
2655.0	0.0	0.43542	-0.81335	
2656.0	0.0	0.42517	-0.8139	
2657.0	0.0	0.41455	-0.80566	
2658.0	0.0	0.40247	-0.81509	
2659.0	0.0	0.39111	-0.80946	
2660.0	0.0	0.38049	-0.8161	
2661.0	0.0	0.36951	-0.8053	
2662.0	0.0	0.35852	-0.81006	
2663.0	0.0	0.34644	-0.79468	
2664.0	0.0	0.33325	-0.79669	
2665.0	0.0	0.3197	-0.78745	
2666.0	0.0	0.3056	-0.79056	
2667.0	0.0	0.29095	-0.79742	
2668.0	0.0	0.27686	-0.80008	
2669.0	0.0	0.26129	-0.79047	
2670.0	0.0	0.24536	-0.79724	
2671.0	0.0	0.22852	-0.7879	
2672.0	0.0	0.21057	-0.79303	
2673.0	0.0	0.19336	-0.77362	
2674.0	0.0	0.17487	-0.7641	
2675.0	0.0	0.15527	-0.74066	
2676.0	0.0	0.1344	-0.72821	
2677.0	0.0	0.11298	-0.71759	
2678.0	0.0	0.09045	-0.70972	
2679.0	0.0	0.06628	-0.69855	
2680.0	0.0	0.04303	-0.68051	
2681.0	0.0	0.01868	-0.6795	
2682.0	0.0	-0.00476	-0.65909	
2683.0	0.0	-0.0293	-0.65158	
2684.0	0.0	-0.05347	-0.63217	
2685.0	0.0	-0.07745	-0.62128	
2686.0	0.0	-0.10291	-0.60883	
2687.0	0.0	-0.12891	-0.59766	
2688.0	0.0	-0.15564	-0.58356	
2689.0	0.0	-0.18347	-0.58182	
2690.0	0.0	-0.21204	-0.57477	
2691.0	0.0	-0.2417	-0.56964	
2692.0	0.0	-0.27246	-0.57458	
2693.0	0.0	-0.30359	-0.57678	
2694.0	0.0	-0.33545	-0.5755	
2695.0	0.0	-0.36896	-0.5701	
2696.0	0.0	-0.40265	-0.55975	
2697.0	0.0	-0.43579	-0.5473	
2698.0	0.0	-0.47021	-0.53156	
2699.0	0.0	-0.50574	-0.52075	
2700.0	0.0	-0.54089	-0.50858	
2701.0	0.0	-0.57568	-0.49896	
2702.0	0.0	-0.61029	-0.48431	
2703.0	0.0	-0.64508	-0.48029	
2704.0	0.0	-0.68152	-0.47461	
2705.0	0.0	-0.71851	-0.46143	
2706.0	0.0	-0.75714	-0.46198	
2707.0	0.0	-0.79541	-0.45538	
2708.0	0.0	-0.83514	-0.43835	
2709.0	0.0	-0.87305	-0.42737	
2710.0	0.0	-0.90839	-0.41656	
2711.0	0.0	-0.94263	-0.39313	
2712.0	0.0	-0.97412	-0.38342	
2713.0	0.0	-1.00415	-0.36676	
2714.0	0.0	-1.03262	-0.34277	
2715.0	0.0	-1.05885	-0.32886	
2716.0	0.0	-1.08417	-0.31714	
2717.0	0.0	-1.10811	-0.29498	
2718.0	0.0	-1.1304	-0.28729	
2719.0	0.0	-1.15155	-0.26971	
2720.0	0.0	-1.17151	-0.25543	
2721.0	0.0	-1.19037	-0.2395	
2722.0	0.0	-1.20822	-0.22247	
2723.0	0.0	-1.22479	-0.22119	
2724.0	0.0	-1.2404	-0.20123	
2725.0	0.0	-1.2556	-0.19409	
2726.0	0.0	-1.2691	-0.16479	
2727.0	0.0	-1.28101	-0.13586	
2728.0	0.0	-1.29053	-0.11646	
2729.0	0.0	-1.29991	-0.0921	
2730.0	0.0	-1.30865	-0.07544	
2731.0	0.0	-1.31813	-0.05127	
2732.0	0.0	-1.32834	-0.02582	
2733.0	0.0	-1.33859	-0.02692	
2734.0	0.0	-1.34747	-0.01868	
2735.0	0.0	-1.3553	0.00018	
2736.0	0.0	-1.36336	0.0043	
2737.0	0.0	-1.37105	0.02454	
2738.0	0.0	-1.37828	0.02376	
2739.0	0.0	-1.38528	0.07214	
2740.0	0.0	-1.3916	0.08276	
2741.0	0.0	-1.39774	0.10345	
2742.0	0.0	-1.40392	0.12506	
2743.0	0.0	-1.409	0.14465	
2744.0	0.0	-1.41389	0.14795	
2745.0	0.0	-1.4187	0.17157	
2746.0	0.0	-1.42319	0.19647	
2747.0	0.0	-1.4274	0.18777	
2748.0	0.0	-1.43129	0.23886	
2749.0	0.0	-1.43481	0.2406	
2750.0	0.0	-1.43834	0.26202	
2751.0	0.0	-1.44168	0.29022	
2752.0	0.0	-1.44484	0.31128	
2753.0	0.0	-1.44781	0.32043	
2754.0	0.0	-1.45065	0.34644	
2755.0	0.0	-1.45326	0.36713	
2756.0	0.0	-1.45551	0.36145	
2757.0	0.0	-1.45789	0.37115	
2758.0	0.0	-1.4599	0.42261	
2759.0	0.0	-1.46201	0.44275	
2760.0	0.0	-1.46356	0.47461	
2761.0	0.0	-1.46411	0.50537	
2762.0	0.0	-1.46466	0.50995	
2763.0	0.0	-1.46471	0.54309	
2764.0	0.0	-1.46635	0.56689	
2765.0	0.0	-1.46823	0.57861	
2766.0	0.0	-1.47011	0.58859	
2767.0	0.0	-1.47144	0.59656	
2768.0	0.0	-1.47313	0.60809	
2769.0	0.0	-1.47418	0.62036	
2770.0	0.0	-1.47359	0.63538	
2771.0	0.0	-1.46947	0.66193	
2772.0	0.0	-1.46306	0.68555	
2773.0	0.0	-1.45528	0.70825	
2774.0	0.0	-1.44745	0.73151	
2775.0	0.0	-1.4393	0.74268	
2776.0	0.0	-1.43106	0.75	
2777.0	0.0	-1.42131	0.75677	
2778.0	0.0	-1.40881	0.76154	
2779.0	0.0	-1.39297	0.76685	
2780.0	0.0	-1.37604	0.77856	
2781.0	0.0	-1.36024	0.79083	
2782.0	0.0	-1.34528	0.8031	
2783.0	0.0	-1.332	0.8161	
2784.0	0.0	-1.31992	0.82819	
2785.0	0.0	-1.30833	0.83167	
2786.0	0.0	-1.29456	0.83459	
2787.0	0.0	-1.27785	0.79797	
2788.0	0.0	-1.25986	0.83441	
2789.0	0.0	-1.24141	0.83313	
2790.0	0.0	-1.22333	0.85052	
2791.0	0.0	-1.20557	0.86536	
2792.0	0.0	-1.18817	0.84448	
2793.0	0.0	-1.17023	0.88293	
2794.0	0.0	-1.14944	0.89319	
2795.0	0.0	-1.1261	0.88824	
2796.0	0.0	-1.10138	0.8833	
2797.0	0.0	-1.07661	0.88403	
2798.0	0.0	-1.05157	0.87964	
2799.0	0.0	-1.02795	0.88934	
2800.0	0.0	-1.00671	0.89319	
2801.0	0.0	-0.98767	0.90601	
2802.0	0.0	-0.96918	0.9093	
2803.0	0.0	-0.94995	0.90747	
2804.0	0.0	-0.92944	0.90637	
2805.0	0.0	-0.9082	0.90253	
2806.0	0.0	-0.88568	0.9093	
2807.0	0.0	-0.86133	0.90527	
2808.0	0.0	-0.83588	0.90051	
2809.0	0.0	-0.81006	0.88934	
2810.0	0.0	-0.78387	0.88715	
2811.0	0.0	-0.75815	0.87653	
2812.0	0.0	-0.73297	0.86462	
2813.0	0.0	-0.70944	0.85327	
2814.0	0.0	-0.68719	0.84119	
2815.0	0.0	-0.6676	0.81299	
2816.0	0.0	-0.64984	0.83368	
2817.0	0.0	-0.63483	0.82764	
2818.0	0.0	-0.62183	0.82727	
2819.0	0.0	-0.61121	0.82059	
2820.0	0.0	-0.60077	0.81885	
2821.0	0.0	-0.59143	0.81592	
2822.0	0.0	-0.58429	0.78772	
2823.0	0.0	-0.57788	0.81152	
2824.0	0.0	-0.5712	0.8053	
2825.0	0.0	-0.56433	0.82141	
2826.0	0.0	-0.55682	0.81812	
2827.0	0.0	-0.54932	0.8291	
2828.0	0.0	-0.54346	0.83231	
2829.0	0.0	-0.53906	0.8302	
2830.0	0.0	-0.53613	0.82434	
2831.0	0.0	-0.53394	0.81885	
2832.0	0.0	-0.53046	0.80493	
2833.0	0.0	-0.52661	0.81537	
2834.0	0.0	-0.52222	0.81464	
2835.0	0.0	-0.51801	0.81317	
2836.0	0.0	-0.51453	0.8172	
2837.0	0.0	-0.51215	0.81482	
2838.0	0.0	-0.51105	0.81207	
2839.0	0.0	-0.50958	0.78548	
2840.0	0.0	-0.50867	0.80887	
2841.0	0.0	-0.50684	0.80878	
2842.0	0.0	-0.50446	0.79962	
2843.0	0.0	-0.50162	0.80457	
2844.0	0.0	-0.49969	0.79797	
2845.0	0.0	-0.49841	0.79266	
2846.0	0.0	-0.49933	0.7923	
2847.0	0.0	-0.50024	0.76172	
2848.0	0.0	-0.49933	0.77948	
2849.0	0.0	-0.49695	0.7663	
2850.0	0.0	-0.49329	0.75861	
2851.0	0.0	-0.48926	0.75586	
2852.0	0.0	-0.48596	0.74446	
2853.0	0.0	-0.48285	0.7478	
2854.0	0.0	-0.4812	0.73938	
2855.0	0.0	-0.4801	0.72949	
2856.0	0.0	-0.47845	0.7251	
2857.0	0.0	-0.47699	0.71082	
2858.0	0.0	-0.47498	0.68884	
2859.0	0.0	-0.47205	0.67529	
2860.0	0.0	-0.46912	0.6524	
2861.0	0.0	-0.46637	0.64481	
2862.0	0.0	-0.46362	0.62787	
2863.0	0.0	-0.46097	0.62823	
2864.0	0.0	-0.45886	0.61597	
2865.0	0.0	-0.45712	0.60388	
2866.0	0.0	-0.45648	0.57385	
2867.0	0.0	-0.45557	0.56982	
2868.0	0.0	-0.45374	0.55554	
2869.0	0.0	-0.44934	0.53503	
2870.0	0.0	-0.44366	0.52112	
2871.0	0.0	-0.43652	0.51068	
2872.0	0.0	-0.42847	0.50482	
2873.0	0.0	-0.42151	0.4964	
2874.0	0.0	-0.4151	0.48431	
2875.0	0.0	-0.40906	0.47479	
2876.0	0.0	-0.40338	0.44623	
2877.0	0.0	-0.39771	0.44714	
2878.0	0.0	-0.3924	0.41583	
2879.0	0.0	-0.38727	0.39862	
2880.0	0.0	-0.38306	0.40814	
2881.0	0.0	-0.3783	0.39551	
2882.0	0.0	-0.37354	0.36621	
2883.0	0.0	-0.36877	0.35138	
2884.0	0.0	-0.36255	0.35706	
2885.0	0.0	-0.35577	0.34094	
2886.0	0.0	-0.349	0.32391	
2887.0	0.0	-0.34167	0.3045	
2888.0	0.0	-0.33472	0.2785	
2889.0	0.0	-0.32629	0.26221	
2890.0	0.0	-0.31769	0.23749	
2891.0	0.0	-0.31055	0.2287	
2892.0	0.0	-0.30249	0.21735	
2893.0	0.0	-0.29315	0.20251	
2894.0	0.0	-0.28345	0.1778	
2895.0	0.0	-0.27228	0.17377	
2896.0	0.0	-0.26056	0.1463	
2897.0	0.0	-0.24902	0.12708	
2898.0	0.0	-0.2384	0.104	
2899.0	0.0	-0.22742	0.08789	
2900.0	0.0	-0.2168	0.07104	
2901.0	0.0	-0.20654	0.06848	
2902.0	0.0	-0.19537	0.05585	
2903.0	0.0	-0.18622	0.05695	
2904.0	0.0	-0.17816	0.04449	
2905.0	0.0	-0.17084	0.03369	
2906.0	0.0	-0.16351	0.02234	
2907.0	0.0	-0.15601	-0.00476	
2908.0	0.0	-0.14795	-0.02472	
2909.0	0.0	-0.13989	-0.04555	
2910.0	0.0	-0.13165	-0.06793	
2911.0	0.0	-0.12433	-0.08176	
2912.0	0.0	-0.11627	-0.09851	
2913.0	0.0	-0.10913	-0.11261	
2914.0	0.0	-0.10254	-0.12506	
2915.0	0.0	-0.0976	-0.13678	
2916.0	0.0	-0.09302	-0.14978	
2917.0	0.0	-0.08826	-0.16516	
2918.0	0.0	-0.08185	-0.18311	
2919.0	0.0	-0.07471	-0.20123	
2920.0	0.0	-0.06775	-0.22101	
2921.0	0.0	-0.06006	-0.2417	
2922.0	0.0	-0.05328	-0.2601	
2923.0	0.0	-0.04614	-0.27914	
2924.0	0.0	-0.03992	-0.29663	
2925.0	0.0	-0.03479	-0.31714	
2926.0	0.0	-0.03076	-0.33746	
2927.0	0.0	-0.02563	-0.35522	
2928.0	0.0	-0.02124	-0.37042	
2929.0	0.0	-0.01538	-0.39203	
2930.0	0.0	-0.00842	-0.40631	
2931.0	0.0	-0.00165	-0.42618	
2932.0	0.0	0.00513	-0.44385	
2933.0	0.0	0.01135	-0.45941	
2934.0	0.0	0.0174	-0.47955	
2935.0	0.0	0.0238	-0.49438	
2936.0	0.0	0.0304	-0.51123	
2937.0	0.0	0.03754	-0.53467	
2938.0	0.0	0.04541	-0.55206	
2939.0	0.0	0.0542	-0.56195	
2940.0	0.0	0.06519	-0.56287	
2941.0	0.0	0.07764	-0.57788	
2942.0	0.0	0.09265	-0.59033	
2943.0	0.0	0.10876	-0.58667	
2944.0	0.0	0.12524	-0.59875	
2945.0	0.0	0.14209	-0.6048	
2946.0	0.0	0.15894	-0.60507	
2947.0	0.0	0.17651	-0.5929	
2948.0	0.0	0.19482	-0.59024	
2949.0	0.0	0.21277	-0.58649	
2950.0	0.0	0.23309	-0.56909	
2951.0	0.0	0.25415	-0.57458	
2952.0	0.0	0.27612	-0.56598	
2953.0	0.0	0.29956	-0.55215	
2954.0	0.0	0.323	-0.5452	
2955.0	0.0	0.34662	-0.53265	
2956.0	0.0	0.36914	-0.51416	
2957.0	0.0	0.3913	-0.50775	
2958.0	0.0	0.41199	-0.4834	
2959.0	0.0	0.43213	-0.48102	
2960.0	0.0	0.45209	-0.45392	
2961.0	0.0	0.47314	-0.45428	
2962.0	0.0	0.49384	-0.44128	
2963.0	0.0	0.51562	-0.43597	
2964.0	0.0	0.5376	-0.4259	
2965.0	0.0	0.55994	-0.42371	
2966.0	0.0	0.58154	-0.40173	
2967.0	0.0	0.60278	-0.39038	
2968.0	0.0	0.62476	-0.37463	
2969.0	0.0	0.646	-0.36292	
2970.0	0.0	0.66724	-0.34991	
2971.0	0.0	0.68738	-0.34167	
2972.0	0.0	0.70752	-0.33142	
2973.0	0.0	0.72803	-0.32849	
2974.0	0.0	0.74799	-0.31512	
2975.0	0.0	0.76758	-0.29883	
2976.0	0.0	0.78772	-0.27832	
2977.0	0.0	0.80621	-0.271	
2978.0	0.0	0.82324	-0.25937	
2979.0	0.0	0.83826	-0.2439	
2980.0	0.0	0.854	-0.2287	
2981.0	0.0	0.86792	-0.21625	
2982.0	0.0	0.88147	-0.19299	
2983.0	0.0	0.89502	-0.18787	
2984.0	0.0	0.90967	-0.16786	
2985.0	0.0	0.92285	-0.13843	
2986.0	0.0	0.93677	-0.11691	
2987.0	0.0	0.94867	-0.10272	
2988.0	0.0	0.9613	-0.08368	
2989.0	0.0	0.97192	-0.05621	
2990.0	0.0	0.98218	-0.04211	
2991.0	0.0	0.99316	-0.02417	
2992.0	0.0	1.00159	-0.00687	
2993.0	0.0	1.01038	0.01428	
2994.0	0.0	1.01807	0.02188	
2995.0	0.0	1.02686	0.02911	
2996.0	0.0	1.03271	0.05219	
2997.0	0.0	1.03894	0.06189	
2998.0	0.0	1.04517	0.09119	
2999.0	0.0	1.05249	0.10547	
3000.0	0.0	1.05872	0.10455	
3001.0	0.0	1.06641	0.12561	
3002.0	0.0	1.07373	0.13239	
3003.0	0.0	1.08032	0.1485	
3004.0	0.0	1.08655	0.15674	
3005.0	0.0	1.09351	0.16187	
3006.0	0.0	1.10156	0.18201	
3007.0	0.0	1.10999	0.20032	
3008.0	0.0	1.11987	0.2124	
3009.0	0.0	1.12939	0.21295	
3010.0	0.0	1.14148	0.23419	
3011.0	0.0	1.15247	0.24701	
3012.0	0.0	1.16162	0.2547	
3013.0	0.0	1.16968	0.27393	
3014.0	0.0	1.17627	0.29608	
3015.0	0.0	1.18176	0.30029	
3016.0	0.0	1.18726	0.32281	
3017.0	0.0	1.19312	0.34387	
3018.0	0.0	1.19989	0.36017	
3019.0	0.0	1.2074	0.37262	
3020.0	0.0	1.21436	0.38031	
3021.0	0.0	1.22168	0.3999	
3022.0	0.0	1.22791	0.40759	
3023.0	0.0	1.23779	0.41986	
3024.0	0.0	1.24841	0.43506	
3025.0	0.0	1.26086	0.44559	
3026.0	0.0	1.27478	0.45428	
3027.0	0.0	1.28796	0.46802	
3028.0	0.0	1.30078	0.48944	
3029.0	0.0	1.31213	0.50647	
3030.0	0.0	1.32349	0.52148	
3031.0	0.0	1.33301	0.54254	
3032.0	0.0	1.34052	0.56104	
3033.0	0.0	1.34656	0.57275	
3034.0	0.0	1.35132	0.59766	
3035.0	0.0	1.35571	0.61432	
3036.0	0.0	1.36047	0.62137	
3037.0	0.0	1.3645	0.63409	
3038.0	0.0	1.3667	0.64014	
3039.0	0.0	1.37036	0.64709	
3040.0	0.0	1.37183	0.65277	
3041.0	0.0	1.37439	0.65131	
3042.0	0.0	1.37732	0.65369	
3043.0	0.0	1.38062	0.66119	
3044.0	0.0	1.38519	0.67419	
3045.0	0.0	1.38904	0.67896	
3046.0	0.0	1.3938	0.69397	
3047.0	0.0	1.39746	0.69763	
3048.0	0.0	1.40112	0.7099	
3049.0	0.0	1.40332	0.72034	
3050.0	0.0	1.40479	0.73462	
3051.0	0.0	1.40625	0.74524	
3052.0	0.0	1.40771	0.75659	
3053.0	0.0	1.40735	0.76685	
3054.0	0.0	1.40625	0.77802	
3055.0	0.0	1.40332	0.79358	
3056.0	0.0	1.39893	0.79797	
3057.0	0.0	1.3927	0.81134	
3058.0	0.0	1.38428	0.82269	
3059.0	0.0	1.37585	0.83569	
3060.0	0.0	1.36707	0.85071	
3061.0	0.0	1.35754	0.86572	
3062.0	0.0	1.34656	0.88037	
3063.0	0.0	1.33429	0.89539	
3064.0	0.0	1.32275	0.90985	
3065.0	0.0	1.30957	0.9201	
3066.0	0.0	1.29565	0.93329	
3067.0	0.0	1.28101	0.94666	
3068.0	0.0	1.26416	0.96204	
3069.0	0.0	1.2475	0.97394	
3070.0	0.0	1.229	0.9884	
3071.0	0.0	1.21033	1.00415	
3072.0	0.0	1.19019	1.01477	
3073.0	0.0	1.16748	1.03326	
3074.0	0.0	1.14404	1.0481	
3075.0	0.0	1.12207	1.06311	
3076.0	0.0	1.1001	1.07758	
3077.0	0.0	1.08179	1.08179	
3078.0	0.0	1.06567	1.09314	
3079.0	0.0	1.05103	1.09863	
3080.0	0.0	1.03711	1.10413	
3081.0	0.0	1.02576	1.10541	
3082.0	0.0	1.01477	1.11877	
3083.0	0.0	1.00488	1.11951	
3084.0	0.0	0.9928	1.1217	
3085.0	0.0	0.98071	1.13251	
3086.0	0.0	0.96826	1.14276	
3087.0	0.0	0.95471	1.14221	
3088.0	0.0	0.94189	1.13544	
3089.0	0.0	0.92944	1.13525	
3090.0	0.0	0.91772	1.13873	
3091.0	0.0	0.9071	1.13928	
3092.0	0.0	0.89667	1.13416	
3093.0	0.0	0.8855	1.13947	
3094.0	0.0	0.87451	1.14404	
3095.0	0.0	0.86426	1.14038	
3096.0	0.0	0.854	1.14368	
3097.0	0.0	0.84412	1.13892	
3098.0	0.0	0.83643	1.13159	
3099.0	0.0	0.828	1.11768	
3100.0	0.0	0.82013	1.11731	
3101.0	0.0	0.81189	1.099	
3102.0	0.0	0.80273	1.09497	
3103.0	0.0	0.79303	1.09351	
3104.0	0.0	0.78333	1.09076	
3105.0	0.0	0.77289	1.08618	
3106.0	0.0	0.76245	1.09094	
3107.0	0.0	0.75092	1.08142	
3108.0	0.0	0.73938	1.07666	
3109.0	0.0	0.72821	1.05487	
3110.0	0.0	0.71704	1.05835	
3111.0	0.0	0.70715	1.04041	
3112.0	0.0	0.69873	1.03418	
3113.0	0.0	0.69104	1.0199	
3114.0	0.0	0.68555	0.99994	
3115.0	0.0	0.67786	0.99756	
3116.0	0.0	0.67163	0.9895	
3117.0	0.0	0.66431	0.97083	
3118.0	0.0	0.65771	0.97742	
3119.0	0.0	0.65076	0.96277	
3120.0	0.0	0.64417	0.94849	
3121.0	0.0	0.6394	0.92981	
3122.0	0.0	0.63611	0.91992	
3123.0	0.0	0.63373	0.90582	
3124.0	0.0	0.63135	0.89081	
3125.0	0.0	0.62915	0.87634	
3126.0	0.0	0.62769	0.86279	
3127.0	0.0	0.62512	0.83936	
3128.0	0.0	0.62402	0.83221	
3129.0	0.0	0.62402	0.81647	
3130.0	0.0	0.62585	0.7972	
3131.0	0.0	0.62842	0.78223	
3132.0	0.0	0.63171	0.76208	
3133.0	0.0	0.63611	0.73389	
3134.0	0.0	0.63867	0.72272	
3135.0	0.0	0.64124	0.70605	
3136.0	0.0	0.64307	0.68939	
3137.0	0.0	0.64673	0.67126	
3138.0	0.0	0.64966	0.65295	
3139.0	0.0	0.65405	0.63016	
3140.0	0.0	0.65918	0.61963	
3141.0	0.0	0.66376	0.60077	
3142.0	0.0	0.6687	0.58557	
3143.0	0.0	0.672	0.56433	
3144.0	0.0	0.67548	0.55188	
3145.0	0.0	0.68005	0.53613	
3146.0	0.0	0.68408	0.51929	
3147.0	0.0	0.69067	0.50391	
3148.0	0.0	0.69635	0.48633	
3149.0	0.0	0.70276	0.47168	
3150.0	0.0	0.70953	0.45483	
3151.0	0.0	0.71558	0.43945	
3152.0	0.0	0.72235	0.42297	
3153.0	0.0	0.72913	0.40833	
3154.0	0.0	0.73462	0.39148	
3155.0	0.0	0.73975	0.37573	
3156.0	0.0	0.74487	0.35962	
3157.0	0.0	0.75073	0.34076	
3158.0	0.0	0.75732	0.32446	
3159.0	0.0	0.76392	0.31036	
3160.0	0.0	0.77161	0.29846	
3161.0	0.0	0.77747	0.28528	
3162.0	0.0	0.78259	0.27393	
3163.0	0.0	0.78699	0.26166	
3164.0	0.0	0.79065	0.24902	
3165.0	0.0	0.79468	0.24042	
3166.0	0.0	0.79871	0.23035	
3167.0	0.0	0.80292	0.21771	
3168.0	0.0	0.80713	0.21313	
3169.0	0.0	0.81006	0.20728	
3170.0	0.0	0.81299	0.19775	
3171.0	0.0	0.81592	0.19556	
3172.0	0.0	0.81738	0.18585	
3173.0	0.0	0.81903	0.17523	
3174.0	0.0	0.81958	0.16864	
3175.0	0.0	0.82068	0.15875	
3176.0	0.0	0.82178	0.15234	
3177.0	0.0	0.82397	0.15216	
3178.0	0.0	0.82507	0.13641	
3179.0	0.0	0.82654	0.12634	
3180.0	0.0	0.8269	0.12616	
3181.0	0.0	0.82581	0.11646	
3182.0	0.0	0.82361	0.10785	
3183.0	0.0	0.82031	0.09613	
3184.0	0.0	0.81519	0.07819	
3185.0	0.0	0.80933	0.0639	
3186.0	0.0	0.80273	0.06024	
3187.0	0.0	0.79669	0.04193	
3188.0	0.0	0.78918	0.03076	
3189.0	0.0	0.78223	0.01538	
3190.0	0.0	0.77362	0.00293	
3191.0	0.0	0.76575	-0.01373	
3192.0	0.0	0.75732	-0.03058	
3193.0	0.0	0.75	-0.05054	
3194.0	0.0	0.74377	-0.06519	
3195.0	0.0	0.73828	-0.07379	
3196.0	0.0	0.73279	-0.09229	
3197.0	0.0	0.72949	-0.11005	
3198.0	0.0	0.7251	-0.11755	
3199.0	0.0	0.71997	-0.13037	
3200.0	0.0	0.71594	-0.1441	
3201.0	0.0	0.71191	-0.15747	
3202.0	0.0	0.70825	-0.17194	
3203.0	0.0	0.70459	-0.18274	
3204.0	0.0	0.70166	-0.20068	
3205.0	0.0	0.69983	-0.21844	
3206.0	0.0	0.69836	-0.22174	
3207.0	0.0	0.69727	-0.22998	
3208.0	0.0	0.698	-0.23694	
3209.0	0.0	0.698	-0.24097	
3210.0	0.0	0.69727	-0.25543	
3211.0	0.0	0.69818	-0.26514	
3212.0	0.0	0.69946	-0.26917	
3213.0	0.0	0.70166	-0.27008	
3214.0	0.0	0.70386	-0.28436	
3215.0	0.0	0.70605	-0.30139	
3216.0	0.0	0.70844	-0.29883	
3217.0	0.0	0.71155	-0.29974	
3218.0	0.0	0.71484	-0.31549	
3219.0	0.0	0.71851	-0.31613	
3220.0	0.0	0.72327	-0.3197	
3221.0	0.0	0.72949	-0.32373	
3222.0	0.0	0.73535	-0.34204	
3223.0	0.0	0.74268	-0.34167	
3224.0	0.0	0.7478	-0.34607	
3225.0	0.0	0.75439	-0.35669	
3226.0	0.0	0.75952	-0.36053	
3227.0	0.0	0.76428	-0.375	
3228.0	0.0	0.77014	-0.37115	
3229.0	0.0	0.77563	-0.38983	
3230.0	0.0	0.78186	-0.37994	
3231.0	0.0	0.78845	-0.40723	
3232.0	0.0	0.79651	-0.42023	
3233.0	0.0	0.80292	-0.41382	
3234.0	0.0	0.81006	-0.44238	
3235.0	0.0	0.81519	-0.4411	
3236.0	0.0	0.82031	-0.45135	
3237.0	0.0	0.82544	-0.45776	
3238.0	0.0	0.82983	-0.47736	
3239.0	0.0	0.83276	-0.48926	
3240.0	0.0	0.83643	-0.48651	
3241.0	0.0	0.84009	-0.504	
3242.0	0.0	0.84412	-0.51727	
3243.0	0.0	0.84814	-0.52533	
3244.0	0.0	0.85364	-0.53467	
3245.0	0.0	0.85785	-0.53851	
3246.0	0.0	0.86078	-0.54199	
3247.0	0.0	0.86353	-0.54565	
3248.0	0.0	0.86572	-0.54858	
3249.0	0.0	0.86865	-0.55939	
3250.0	0.0	0.87268	-0.5777	
3251.0	0.0	0.87671	-0.5885	
3252.0	0.0	0.88147	-0.6004	
3253.0	0.0	0.8855	-0.60956	
3254.0	0.0	0.88934	-0.61084	
3255.0	0.0	0.89172	-0.61835	
3256.0	0.0	0.89319	-0.63849	
3257.0	0.0	0.89355	-0.64984	
3258.0	0.0	0.89355	-0.64485	
3259.0	0.0	0.89429	-0.6579	
3260.0	0.0	0.89502	-0.67676	
3261.0	0.0	0.89465	-0.68472	
3262.0	0.0	0.89612	-0.69891	
3263.0	0.0	0.89758	-0.68994	
3264.0	0.0	0.90088	-0.70656	
3265.0	0.0	0.90161	-0.71553	
3266.0	0.0	0.90417	-0.72354	
3267.0	0.0	0.90747	-0.74158	
3268.0	0.0	0.91333	-0.75018	
3269.0	0.0	0.92139	-0.75092	
3270.0	0.0	0.93237	-0.77051	
3271.0	0.0	0.94482	-0.76501	
3272.0	0.0	0.96021	-0.7771	
3273.0	0.0	0.9765	-0.78479	
3274.0	0.0	0.99463	-0.79211	
3275.0	0.0	1.01404	-0.79468	
3276.0	0.0	1.03381	-0.80219	
3277.0	0.0	1.05469	-0.79944	
3278.0	0.0	1.0741	-0.80933	
3279.0	0.0	1.0946	-0.80933	
3280.0	0.0	1.11328	-0.80978	
3281.0	0.0	1.13086	-0.81281	
3282.0	0.0	1.14624	-0.82301	
3283.0	0.0	1.16107	-0.80997	
3284.0	0.0	1.1759	-0.81573	
3285.0	0.0	1.18909	-0.80988	
3286.0	0.0	1.20117	-0.81555	
3287.0	0.0	1.21179	-0.81171	
3288.0	0.0	1.22131	-0.80933	
3289.0	0.0	1.22754	-0.82452	
3290.0	0.0	1.23376	-0.82837	
3291.0	0.0	1.23779	-0.81766	
3292.0	0.0	1.24072	-0.81464	
3293.0	0.0	1.24219	-0.82965	
3294.0	0.0	1.24219	-0.81683	
3295.0	0.0	1.24109	-0.82544	
3296.0	0.0	1.23669	-0.81592	
3297.0	0.0	1.2312	-0.815	
3298.0	0.0	1.22314	-0.81171	
3299.0	0.0	1.21472	-0.80658	
3300.0	0.0	1.20428	-0.81683	
3301.0	0.0	1.1955	-0.80759	
3302.0	0.0	1.18652	-0.80585	
3303.0	0.0	1.17737	-0.80438	
3304.0	0.0	1.16821	-0.80548	
3305.0	0.0	1.15869	-0.80347	
3306.0	0.0	1.14844	-0.80814	
3307.0	0.0	1.13672	-0.82599	
3308.0	0.0	1.1261	-0.82663	
3309.0	0.0	1.11511	-0.83405	
3310.0	0.0	1.10376	-0.83862	
3311.0	0.0	1.09277	-0.85419	
3312.0	0.0	1.08252	-0.85986	
3313.0	0.0	1.07336	-0.86801	
3314.0	0.0	1.06531	-0.86609	
3315.0	0.0	1.05762	-0.8763	
3316.0	0.0	1.05029	-0.88275	
3317.0	0.0	1.04315	-0.88495	
3318.0	0.0	1.03638	-0.89502	
3319.0	0.0	1.03052	-0.91516	
3320.0	0.0	1.02649	-0.92322	
3321.0	0.0	1.02246	-0.92038	
3322.0	0.0	1.01843	-0.92853	
3323.0	0.0	1.0144	-0.9407	
3324.0	0.0	1.01001	-0.94125	
3325.0	0.0	1.00415	-0.95595	
3326.0	0.0	0.99866	-0.96643	
3327.0	0.0	0.99243	-0.97302	
3328.0	0.0	0.98767	-0.97037	
3329.0	0.0	0.98291	-0.98804	
3330.0	0.0	0.97852	-0.97961	
3331.0	0.0	0.97375	-0.98346	
3332.0	0.0	0.96899	-0.9819	
3333.0	0.0	0.96313	-1.00031	
3334.0	0.0	0.95728	-0.99225	
3335.0	0.0	0.95032	-0.99921	
3336.0	0.0	0.94482	-1.01303	
3337.0	0.0	0.93933	-1.00909	
3338.0	0.0	0.93311	-1.02333	
3339.0	0.0	0.92798	-1.01395	
3340.0	0.0	0.92212	-1.0248	
3341.0	0.0	0.91626	-1.02759	
3342.0	0.0	0.91113	-1.02667	
3343.0	0.0	0.90747	-1.02475	
3344.0	0.0	0.90417	-1.03802	
3345.0	0.0	0.90234	-1.03711	
3346.0	0.0	0.90015	-1.03784	
3347.0	0.0	0.89795	-1.03963	
3348.0	0.0	0.89465	-1.03574	
3349.0	0.0	0.88989	-1.03564	
3350.0	0.0	0.88568	-1.0334	
3351.0	0.0	0.88147	-1.0459	
3352.0	0.0	0.88	-1.03922	
3353.0	0.0	0.87872	-1.04457	
3354.0	0.0	0.87891	-1.04462	
3355.0	0.0	0.87964	-1.04622	
3356.0	0.0	0.8811	-1.04819	
3357.0	0.0	0.88147	-1.05908	
3358.0	0.0	0.88184	-1.04709	
3359.0	0.0	0.8822	-1.04929	
3360.0	0.0	0.88293	-1.05057	
3361.0	0.0	0.88477	-1.05679	
3362.0	0.0	0.88623	-1.05908	
3363.0	0.0	0.88861	-1.05469	
3364.0	0.0	0.89136	-1.05066	
3365.0	0.0	0.89301	-1.05597	
3366.0	0.0	0.89557	-1.06311	
3367.0	0.0	0.89685	-1.05487	
3368.0	0.0	0.89832	-1.05643	
3369.0	0.0	0.89795	-1.05835	
3370.0	0.0	0.89722	-1.06036	
3371.0	0.0	0.89777	-1.06128	
3372.0	0.0	0.89575	-1.06641	
3373.0	0.0	0.89465	-1.07474	
3374.0	0.0	0.89282	-1.06787	
3375.0	0.0	0.89026	-1.07941	
3376.0	0.0	0.8877	-1.07478	
3377.0	0.0	0.88403	-1.08179	
3378.0	0.0	0.87964	-1.09186	
3379.0	0.0	0.87524	-1.11342	
3380.0	0.0	0.87103	-1.11525	
3381.0	0.0	0.86572	-1.12683	
3382.0	0.0	0.85931	-1.13887	
3383.0	0.0	0.85181	-1.13681	
3384.0	0.0	0.84375	-1.14862	
3385.0	0.0	0.83496	-1.15256	
3386.0	0.0	0.828	-1.16217	
3387.0	0.0	0.82031	-1.1765	
3388.0	0.0	0.81189	-1.18661	
3389.0	0.0	0.80457	-1.18506	
3390.0	0.0	0.79651	-1.19412	
3391.0	0.0	0.78955	-1.20053	
3392.0	0.0	0.78241	-1.20607	
3393.0	0.0	0.77747	-1.22662	
3394.0	0.0	0.77197	-1.23083	
3395.0	0.0	0.76648	-1.23669	
3396.0	0.0	0.76025	-1.24063	
3397.0	0.0	0.75476	-1.25281	
3398.0	0.0	0.74927	-1.26164	
3399.0	0.0	0.74561	-1.26544	
3400.0	0.0	0.74231	-1.27167	
3401.0	0.0	0.73792	-1.28609	
3402.0	0.0	0.73535	-1.27872	
3403.0	0.0	0.73279	-1.29373	
3404.0	0.0	0.73096	-1.28632	
3405.0	0.0	0.72766	-1.29904	
3406.0	0.0	0.7251	-1.29199	
3407.0	0.0	0.72198	-1.29126	
3408.0	0.0	0.71997	-1.29204	
3409.0	0.0	0.71777	-1.30417	
3410.0	0.0	0.71741	-1.29565	
3411.0	0.0	0.71631	-1.30284	
3412.0	0.0	0.71558	-1.29401	
3413.0	0.0	0.71484	-1.29437	
3414.0	0.0	0.71338	-1.29391	
3415.0	0.0	0.71191	-1.29236	
3416.0	0.0	0.70825	-1.29254	
3417.0	0.0	0.70496	-1.29584	
3418.0	0.0	0.70239	-1.29822	
3419.0	0.0	0.70093	-1.29529	
3420.0	0.0	0.70038	-1.29369	
3421.0	0.0	0.69946	-1.29341	
3422.0	0.0	0.69763	-1.28636	
3423.0	0.0	0.69434	-1.29053	
3424.0	0.0	0.68921	-1.27698	
3425.0	0.0	0.68481	-1.28481	
3426.0	0.0	0.67914	-1.27867	
3427.0	0.0	0.67419	-1.274	
3428.0	0.0	0.67017	-1.28297	
3429.0	0.0	0.66724	-1.27336	
3430.0	0.0	0.66504	-1.26572	
3431.0	0.0	0.66229	-1.26068	
3432.0	0.0	0.65991	-1.25793	
3433.0	0.0	0.65698	-1.25478	
3434.0	0.0	0.65387	-1.26228	
3435.0	0.0	0.65076	-1.24791	
3436.0	0.0	0.64746	-1.24457	
3437.0	0.0	0.6438	-1.25249	
3438.0	0.0	0.64233	-1.23926	
3439.0	0.0	0.6416	-1.24709	
3440.0	0.0	0.64124	-1.23083	
3441.0	0.0	0.64087	-1.22919	
3442.0	0.0	0.64233	-1.22919	
3443.0	0.0	0.64233	-1.22388	
3444.0	0.0	0.64307	-1.22983	
3445.0	0.0	0.6427	-1.21729	
3446.0	0.0	0.64453	-1.22287	
3447.0	0.0	0.64508	-1.21834	
3448.0	0.0	0.64709	-1.2074	
3449.0	0.0	0.64929	-1.20927	
3450.0	0.0	0.65295	-1.21097	
3451.0	0.0	0.65717	-1.2063	
3452.0	0.0	0.66174	-1.20804	
3453.0	0.0	0.6665	-1.19641	
3454.0	0.0	0.6709	-1.19724	
3455.0	0.0	0.67456	-1.19907	
3456.0	0.0	0.67712	-1.19678	
3457.0	0.0	0.67822	-1.20456	
3458.0	0.0	0.67786	-1.20099	
3459.0	0.0	0.67712	-1.19962	
3460.0	0.0	0.67676	-1.21353	
3461.0	0.0	0.67859	-1.20474	
3462.0	0.0	0.68115	-1.20772	
3463.0	0.0	0.68335	-1.20735	
3464.0	0.0	0.68701	-1.20154	
3465.0	0.0	0.68921	-1.20877	
3466.0	0.0	0.6925	-1.20442	
3467.0	0.0	0.69452	-1.2014	
3468.0	0.0	0.6958	-1.21284	
3469.0	0.0	0.69653	-1.20007	
3470.0	0.0	0.69653	-1.20264	
3471.0	0.0	0.69763	-1.19934	
3472.0	0.0	0.69836	-1.19513	
3473.0	0.0	0.69983	-1.1976	
3474.0	0.0	0.70276	-1.18909	
3475.0	0.0	0.70532	-1.18295	
3476.0	0.0	0.70935	-1.17993	
3477.0	0.0	0.71484	-1.17416	
3478.0	0.0	0.71997	-1.17563	
3479.0	0.0	0.7262	-1.17352	
3480.0	0.0	0.73499	-1.17993	
3481.0	0.0	0.74634	-1.1748	
3482.0	0.0	0.75916	-1.17334	
3483.0	0.0	0.77234	-1.17128	
3484.0	0.0	0.78461	-1.17297	
3485.0	0.0	0.79651	-1.16071	
3486.0	0.0	0.80786	-1.15732	
3487.0	0.0	0.8194	-1.1521	
3488.0	0.0	0.83057	-1.1445	
3489.0	0.0	0.84229	-1.14468	
3490.0	0.0	0.85474	-1.13557	
3491.0	0.0	0.86755	-1.13068	
3492.0	0.0	0.87927	-1.13516	
3493.0	0.0	0.89062	-1.12967	
3494.0	0.0	0.90271	-1.12372	
3495.0	0.0	0.91333	-1.12408	
3496.0	0.0	0.92358	-1.1326	
3497.0	0.0	0.93384	-1.12202	
3498.0	0.0	0.94336	-1.12184	
3499.0	0.0	0.95288	-1.12537	
3500.0	0.0	0.9624	-1.1272	
3501.0	0.0	0.97192	-1.12335	
3502.0	0.0	0.98071	-1.12344	
3503.0	0.0	0.98987	-1.12216	
3504.0	0.0	0.99683	-1.12354	
3505.0	0.0	1.00415	-1.11172	
3506.0	0.0	1.01001	-1.11214	
3507.0	0.0	1.01624	-1.11053	
3508.0	0.0	1.02136	-1.10925	
3509.0	0.0	1.02686	-1.11703	
3510.0	0.0	1.0318	-1.11026	
3511.0	0.0	1.03784	-1.10889	
3512.0	0.0	1.04297	-1.10193	
3513.0	0.0	1.04883	-1.10641	
3514.0	0.0	1.05432	-1.09442	
3515.0	0.0	1.06018	-1.09213	
3516.0	0.0	1.06787	-1.08682	
3517.0	0.0	1.0752	-1.0925	
3518.0	0.0	1.08344	-1.09067	
3519.0	0.0	1.09131	-1.10367	
3520.0	0.0	1.099	-1.09122	
3521.0	0.0	1.10449	-1.09076	
3522.0	0.0	1.11108	-1.09561	
3523.0	0.0	1.11548	-1.09346	
3524.0	0.0	1.11914	-1.0849	
3525.0	0.0	1.12207	-1.07693	
3526.0	0.0	1.125	-1.07721	
3527.0	0.0	1.12793	-1.07465	
3528.0	0.0	1.13232	-1.08829	
3529.0	0.0	1.13672	-1.08105	
3530.0	0.0	1.14185	-1.06769	
3531.0	0.0	1.14679	-1.06531	
3532.0	0.0	1.15247	-1.05927	
3533.0	0.0	1.15649	-1.05762	
3534.0	0.0	1.16162	-1.05157	
3535.0	0.0	1.16675	-1.05908	
3536.0	0.0	1.17004	-1.04443	
3537.0	0.0	1.17371	-1.04269	
3538.0	0.0	1.17627	-1.0415	
3539.0	0.0	1.17847	-1.04324	
3540.0	0.0	1.1814	-1.04443	
3541.0	0.0	1.18506	-1.04068	
3542.0	0.0	1.18835	-1.03377	
3543.0	0.0	1.19202	-1.02795	
3544.0	0.0	1.19275	-1.03464	
3545.0	0.0	1.1933	-1.02997	
3546.0	0.0	1.19238	-1.02548	
3547.0	0.0	1.19092	-1.01239	
3548.0	0.0	1.19092	-1.01312	
3549.0	0.0	1.19202	-1.02338	
3550.0	0.0	1.19312	-1.0107	
3551.0	0.0	1.19678	-1.00795	
3552.0	0.0	1.19934	-1.00836	
3553.0	0.0	1.20135	-1.01111	
3554.0	0.0	1.20154	-1.00699	
3555.0	0.0	1.19824	-1.00433	
3556.0	0.0	1.19385	-1.00616	
3557.0	0.0	1.19019	-1.00497	
3558.0	0.0	1.18762	-1.01715	
3559.0	0.0	1.18652	-1.00662	
3560.0	0.0	1.18689	-1.00644	
3561.0	0.0	1.18762	-1.00745	
3562.0	0.0	1.18726	-1.01289	
3563.0	0.0	1.18726	-1.01257	
3564.0	0.0	1.18652	-1.00543	
3565.0	0.0	1.18579	-1.01056	
3566.0	0.0	1.18542	-1.00031	
3567.0	0.0	1.18616	-1.00543	
3568.0	0.0	1.18744	-0.99472	
3569.0	0.0	1.18927	-0.99738	
3570.0	0.0	1.18945	-0.99152	
3571.0	0.0	1.18945	-0.99152	
3572.0	0.0	1.18872	-0.99014	
3573.0	0.0	1.18597	-0.98804	
3574.0	0.0	1.18286	-0.98712	
3575.0	0.0	1.1792	-0.98035	
3576.0	0.0	1.17554	-0.99371	
3577.0	0.0	1.17334	-0.98726	
3578.0	0.0	1.17151	-0.99001	
3579.0	0.0	1.16968	-0.98318	
3580.0	0.0	1.16785	-0.98145	
3581.0	0.0	1.16528	-0.97174	
3582.0	0.0	1.16162	-0.9809	
3583.0	0.0	1.1554	-0.98035	
3584.0	0.0	1.14917	-0.97659	
3585.0	0.0	1.14331	-0.96881	
3586.0	0.0	1.13745	-0.97119	
3587.0	0.0	1.13049	-0.96414	
3588.0	0.0	1.12354	-0.95197	
3589.0	0.0	1.11658	-0.95027	
3590.0	0.0	1.10999	-0.9505	
3591.0	0.0	1.10449	-0.94171	
3592.0	0.0	1.0979	-0.93274	
3593.0	0.0	1.09094	-0.92725	
3594.0	0.0	1.08398	-0.93127	
3595.0	0.0	1.07739	-0.93906	
3596.0	0.0	1.07318	-0.91891	
3597.0	0.0	1.06824	-0.92574	
3598.0	0.0	1.06512	-0.91205	
3599.0	0.0	1.06201	-0.90633	
3600.0	0.0	1.05762	-0.90189	
3601.0	0.0	1.05432	-0.89813	
3602.0	0.0	1.05176	-0.90326	
3603.0	0.0	1.04846	-0.89877	
3604.0	0.0	1.0459	-0.89813	
3605.0	0.0	1.04187	-0.88239	
3606.0	0.0	1.03894	-0.89186	
3607.0	0.0	1.03638	-0.88234	
3608.0	0.0	1.03418	-0.8801	
3609.0	0.0	1.03217	-0.88367	
3610.0	0.0	1.0307	-0.89328	
3611.0	0.0	1.02759	-0.8941	
3612.0	0.0	1.02557	-0.88312	
3613.0	0.0	1.02319	-0.89777	
3614.0	0.0	1.02173	-0.90179	
3615.0	0.0	1.021	-0.89374	
3616.0	0.0	1.0199	-0.90546	
3617.0	0.0	1.01678	-0.90363	
3618.0	0.0	1.01129	-0.91351	
3619.0	0.0	1.00232	-0.92496	
3620.0	0.0	0.99023	-0.94345	
3621.0	0.0	0.97888	-0.98373	
3622.0	0.0	0.96973	-1.00635	
3623.0	0.0	0.96313	-1.04022	
3624.0	0.0	0.95654	-1.07098	
3625.0	0.0	0.94775	-1.10541	
3626.0	0.0	0.9397	-1.13928	
3627.0	0.0	0.92889	-1.15791	
3628.0	0.0	0.91699	-1.17911	
3629.0	0.0	0.90344	-1.20589	
3630.0	0.0	0.88641	-1.21852	
3631.0	0.0	0.86389	-1.24571	
3632.0	0.0	0.84009	-1.25743	
3633.0	0.0	0.81555	-1.26315	
3634.0	0.0	0.79175	-1.27428	
3635.0	0.0	0.76721	-1.28458	
3636.0	0.0	0.74048	-1.28787	
3637.0	0.0	0.71045	-1.28535	
3638.0	0.0	0.67804	-1.29062	
3639.0	0.0	0.64343	-1.27249	
3640.0	0.0	0.60754	-1.26553	
3641.0	0.0	0.57166	-1.27148	
3642.0	0.0	0.5376	-1.26617	
3643.0	0.0	0.50464	-1.26732	
3644.0	0.0	0.4715	-1.27766	
3645.0	0.0	0.43781	-1.28059	
3646.0	0.0	0.40228	-1.28641	
3647.0	0.0	0.36511	-1.28929	
3648.0	0.0	0.32666	-1.29323	
3649.0	0.0	0.28674	-1.29218	
3650.0	0.0	0.24811	-1.28824	
3651.0	0.0	0.21204	-1.29346	
3652.0	0.0	0.17981	-1.29044	
3653.0	0.0	0.14978	-1.30431	
3654.0	0.0	0.12122	-1.30975	
3655.0	0.0	0.09375	-1.32257	
3656.0	0.0	0.06628	-1.3255	
3657.0	0.0	0.03937	-1.31259	
3658.0	0.0	0.0119	-1.30811	
3659.0	0.0	-0.01575	-1.29762	
3660.0	0.0	-0.04486	-1.29483	
3661.0	0.0	-0.07544	-1.28311	
3662.0	0.0	-0.10583	-1.28334	
3663.0	0.0	-0.13623	-1.28462	
3664.0	0.0	-0.16626	-1.27588	
3665.0	0.0	-0.19629	-1.27002	
3666.0	0.0	-0.2265	-1.26251	
3667.0	0.0	-0.2569	-1.25372	
3668.0	0.0	-0.28784	-1.23276	
3669.0	0.0	-0.31805	-1.22241	
3670.0	0.0	-0.3479	-1.19458	
3671.0	0.0	-0.37811	-1.17471	
3672.0	0.0	-0.40906	-1.14514	
3673.0	0.0	-0.44037	-1.12317	
3674.0	0.0	-0.4726	-1.08929	
3675.0	0.0	-0.5061	-1.0686	
3676.0	0.0	-0.54034	-1.03564	
3677.0	0.0	-0.57458	-1.00104	
3678.0	0.0	-0.61066	-0.9635	
3679.0	0.0	-0.64746	-0.92267	
3680.0	0.0	-0.68701	-0.88174	
3681.0	0.0	-0.72839	-0.84183	
3682.0	0.0	-0.77124	-0.80365	
3683.0	0.0	-0.81244	-0.76859	
3684.0	0.0	-0.85135	-0.7359	
3685.0	0.0	-0.88788	-0.71022	
3686.0	0.0	-0.92249	-0.68399	
3687.0	0.0	-0.95526	-0.6622	
3688.0	0.0	-0.98593	-0.63007	
3689.0	0.0	-1.01505	-0.60022	
3690.0	0.0	-1.04214	-0.57037	
3691.0	0.0	-1.06787	-0.54034	
3692.0	0.0	-1.09277	-0.49969	
3693.0	0.0	-1.11557	-0.46161	
3694.0	0.0	-1.13754	-0.42462	
3695.0	0.0	-1.15787	-0.37152	
3696.0	0.0	-1.17769	-0.31558	
3697.0	0.0	-1.19568	-0.30542	
3698.0	0.0	-1.21317	-0.31787	
3699.0	0.0	-1.22955	-0.35394	
3700.0	0.0	-1.24475	-0.43964	
3701.0	0.0	-1.25922	-0.5116	
3702.0	0.0	-1.27304	-0.56799	
3703.0	0.0	-1.28577	-0.62823	
3704.0	0.0	-1.29776	-0.69278	
3705.0	0.0	-1.30948	-0.74158	
3706.0	0.0	-1.32019	-0.78168	
3707.0	0.0	-1.33054	-0.82947	
3708.0	0.0	-1.33992	-0.87561	
3709.0	0.0	-1.34903	-0.90811	
3710.0	0.0	-1.35773	-0.94235	
3711.0	0.0	-1.36523	-0.9798	
3712.0	0.0	-1.37297	-1.00777	
3713.0	0.0	-1.38025	-1.03857	
3714.0	0.0	-1.38661	-1.07071	
3715.0	0.0	-1.39297	-1.09863	
3716.0	0.0	-1.39897	-1.11813	
3717.0	0.0	-1.40433	-1.14789	
3718.0	0.0	-1.40955	-1.16849	
3719.0	0.0	-1.41472	-1.18909	
3720.0	0.0	-1.41953	-1.20424	
3721.0	0.0	-1.42374	-1.21834	
3722.0	0.0	-1.42767	-1.22928	
3723.0	0.0	-1.43156	-1.23706	
3724.0	0.0	-1.43541	-1.25111	
3725.0	0.0	-1.43866	-1.26462	
3726.0	0.0	-1.44214	-1.27982	
3727.0	0.0	-1.44466	-1.29263	
3728.0	0.0	-1.44745	-1.29689	
3729.0	0.0	-1.45015	-1.29144	
3730.0	0.0	-1.45052	-1.27011	
3731.0	0.0	-1.44832	-1.23518	
3732.0	0.0	-1.44118	-1.19037	
3733.0	0.0	-1.43051	-1.1532	
3734.0	0.0	-1.41866	-1.11438	
3735.0	0.0	-1.40648	-1.09543	
3736.0	0.0	-1.39114	-1.08302	
3737.0	0.0	-1.36926	-1.06952	
3738.0	0.0	-1.34161	-1.03995	
3739.0	0.0	-1.31076	-0.99953	
3740.0	0.0	-1.27803	-0.957	
3741.0	0.0	-1.24567	-0.90363	
3742.0	0.0	-1.21152	-0.8551	
3743.0	0.0	-1.17224	-0.82031	
3744.0	0.0	-1.12953	-0.79834	
3745.0	0.0	-1.08398	-0.76721	
3746.0	0.0	-1.03839	-0.74707	
3747.0	0.0	-0.99591	-0.70459	
3748.0	0.0	-0.95718	-0.66998	
3749.0	0.0	-0.92267	-0.6297	
3750.0	0.0	-0.88916	-0.58887	
3751.0	0.0	-0.85638	-0.54565	
3752.0	0.0	-0.82343	-0.5061	
3753.0	0.0	-0.79211	-0.4715	
3754.0	0.0	-0.76447	-0.43268	
3755.0	0.0	-0.74048	-0.39899	
3756.0	0.0	-0.7196	-0.36713	
3757.0	0.0	-0.69891	-0.32172	
3758.0	0.0	-0.67914	-0.27759	
3759.0	0.0	-0.66101	-0.24023	
3760.0	0.0	-0.646	-0.17743	
3761.0	0.0	-0.63281	-0.13586	
3762.0	0.0	-0.61871	-0.09631	
3763.0	0.0	-0.60516	-0.04926	
3764.0	0.0	-0.59235	-0.01758	
3765.0	0.0	-0.58173	0.01996	
3766.0	0.0	-0.57385	0.05841	
3767.0	0.0	-0.56726	0.08716	
3768.0	0.0	-0.56433	0.13275	
3769.0	0.0	-0.56342	0.18219	
3770.0	0.0	-0.56268	0.2157	
3771.0	0.0	-0.56241	0.25946	
3772.0	0.0	-0.5614	0.31494	
3773.0	0.0	-0.5614	0.36035	
3774.0	0.0	-0.56158	0.41016	
3775.0	0.0	-0.56232	0.45996	
3776.0	0.0	-0.56104	0.5061	
3777.0	0.0	-0.55884	0.53119	
3778.0	0.0	-0.55536	0.59253	
3779.0	0.0	-0.55115	0.63464	
3780.0	0.0	-0.54657	0.68903	
3781.0	0.0	-0.54089	0.73224	
3782.0	0.0	-0.53412	0.75183	
3783.0	0.0	-0.52661	0.80347	
3784.0	0.0	-0.51837	0.83606	
3785.0	0.0	-0.51013	0.86536	
3786.0	0.0	-0.50116	0.89575	
3787.0	0.0	-0.49475	0.9267	
3788.0	0.0	-0.48871	0.96332	
3789.0	0.0	-0.48322	0.99701	
3790.0	0.0	-0.47681	1.02411	
3791.0	0.0	-0.47021	1.0481	
3792.0	0.0	-0.46216	1.06219	
3793.0	0.0	-0.45355	1.0697	
3794.0	0.0	-0.44385	1.08527	
3795.0	0.0	-0.43561	1.09241	
3796.0	0.0	-0.42865	1.10188	
3797.0	0.0	-0.42041	1.08801	
3798.0	0.0	-0.41034	1.11841	
3799.0	0.0	-0.39807	1.12518	
3800.0	0.0	-0.38525	1.12701	
3801.0	0.0	-0.37354	1.12518	
3802.0	0.0	-0.3631	1.10687	
3803.0	0.0	-0.35248	1.09698	
3804.0	0.0	-0.34021	1.09186	
3805.0	0.0	-0.32794	1.08783	
3806.0	0.0	-0.31494	1.08582	
3807.0	0.0	-0.30286	1.10046	
3808.0	0.0	-0.29169	1.1239	
3809.0	0.0	-0.2807	1.12646	
3810.0	0.0	-0.271	1.15045	
3811.0	0.0	-0.26294	1.13745	
3812.0	0.0	-0.25507	1.15228	
3813.0	0.0	-0.24866	1.15192	
3814.0	0.0	-0.24445	1.15704	
3815.0	0.0	-0.24234	1.14148	
3816.0	0.0	-0.24133	1.16565	
3817.0	0.0	-0.24078	1.16455	
3818.0	0.0	-0.23932	1.1532	
3819.0	0.0	-0.23767	1.13068	
3820.0	0.0	-0.23602	1.09937	
3821.0	0.0	-0.23401	1.06641	
3822.0	0.0	-0.23218	1.047	
3823.0	0.0	-0.23126	1.03619	
3824.0	0.0	-0.23145	1.03821	
3825.0	0.0	-0.23328	1.04407	
3826.0	0.0	-0.23639	1.05652	
3827.0	0.0	-0.23969	1.0697	
3828.0	0.0	-0.24207	1.11328	
3829.0	0.0	-0.245	1.14276	
3830.0	0.0	-0.24756	1.16986	
3831.0	0.0	-0.24902	1.18982	
3832.0	0.0	-0.2514	1.20776	
3833.0	0.0	-0.25488	1.22314	
3834.0	0.0	-0.25928	1.2334	
3835.0	0.0	-0.26331	1.24475	
3836.0	0.0	-0.26678	1.255	
3837.0	0.0	-0.271	1.27075	
3838.0	0.0	-0.27484	1.2832	
3839.0	0.0	-0.27832	1.29895	
3840.0	0.0	-0.28125	1.28027	
3841.0	0.0	-0.28326	1.31799	
3842.0	0.0	-0.28455	1.33337	
3843.0	0.0	-0.28528	1.31282	
3844.0	0.0	-0.28455	1.35022	
3845.0	0.0	-0.2829	1.35242	
3846.0	0.0	-0.27979	1.36414	
3847.0	0.0	-0.27576	1.37439	
3848.0	0.0	-0.27026	1.37787	
3849.0	0.0	-0.26514	1.39197	
3850.0	0.0	-0.26147	1.39691	
3851.0	0.0	-0.25818	1.39893	
3852.0	0.0	-0.25635	1.40753	
3853.0	0.0	-0.25397	1.41376	
3854.0	0.0	-0.25232	1.4209	
3855.0	0.0	-0.25195	1.42236	
3856.0	0.0	-0.25159	1.42767	
3857.0	0.0	-0.2514	1.43225	
3858.0	0.0	-0.25104	1.43298	
3859.0	0.0	-0.24976	1.43298	
3860.0	0.0	-0.24756	1.43719	
3861.0	0.0	-0.24207	1.44269	
3862.0	0.0	-0.23438	1.4458	
3863.0	0.0	-0.22375	1.45203	
3864.0	0.0	-0.21167	1.45312	
3865.0	0.0	-0.20023	1.45294	
3866.0	0.0	-0.18878	1.45862	
3867.0	0.0	-0.17688	1.45844	
3868.0	0.0	-0.16296	1.4632	
3869.0	0.0	-0.14594	1.46338	
3870.0	0.0	-0.12671	1.46448	
3871.0	0.0	-0.10529	1.46484	
3872.0	0.0	-0.08276	1.46191	
3873.0	0.0	-0.05896	1.46301	
3874.0	0.0	-0.03461	1.46429	
3875.0	0.0	-0.00916	1.46228	
3876.0	0.0	0.01666	1.46924	
3877.0	0.0	0.04468	1.47125	
3878.0	0.0	0.07306	1.47217	
3879.0	0.0	0.10327	1.47098	
3880.0	0.0	0.13367	1.47528	
3881.0	0.0	0.16406	1.47601	
3882.0	0.0	0.19501	1.47583	
3883.0	0.0	0.22668	1.47876	
3884.0	0.0	0.25891	1.47821	
3885.0	0.0	0.29132	1.48132	
3886.0	0.0	0.3241	1.47968	
3887.0	0.0	0.3587	1.48224	
3888.0	0.0	0.39221	1.48315	
3889.0	0.0	0.42627	1.48077	
3890.0	0.0	0.46106	1.48682	
3891.0	0.0	0.49658	1.4837	
3892.0	0.0	0.53156	1.48792	
3893.0	0.0	0.56616	1.48755	
3894.0	0.0	0.60059	1.48407	
3895.0	0.0	0.63391	1.4859	
3896.0	0.0	0.66797	1.48187	
3897.0	0.0	0.70093	1.47583	
3898.0	0.0	0.73535	1.47839	
3899.0	0.0	0.77014	1.47784	
3900.0	0.0	0.80493	1.47858	
3901.0	0.0	0.84009	1.47327	
3902.0	0.0	0.87689	1.48444	
3903.0	0.0	0.91187	1.48535	
3904.0	0.0	0.94482	1.487	
3905.0	0.0	0.97742	1.48389	
3906.0	0.0	1.00708	1.48901	
3907.0	0.0	1.03564	1.4881	
3908.0	0.0	1.06165	1.4892	
3909.0	0.0	1.08691	1.49084	
3910.0	0.0	1.11145	1.49066	
3911.0	0.0	1.13379	1.49799	
3912.0	0.0	1.15503	1.49377	
3913.0	0.0	1.17407	1.49377	
3914.0	0.0	1.19385	1.49084	
3915.0	0.0	1.21106	1.48096	
3916.0	0.0	1.22791	1.4751	
3917.0	0.0	1.24365	1.46338	
3918.0	0.0	1.25903	1.45276	
3919.0	0.0	1.27295	1.44287	
3920.0	0.0	1.2865	1.4436	
3921.0	0.0	1.29932	1.45074	
3922.0	0.0	1.30975	1.45642	
3923.0	0.0	1.31946	1.45917	
3924.0	0.0	1.32788	1.46301	
3925.0	0.0	1.33557	1.46516	
3926.0	0.0	1.34161	1.46814	
3927.0	0.0	1.34875	1.46777	
3928.0	0.0	1.35388	1.46558	
3929.0	0.0	1.35791	1.46704	
3930.0	0.0	1.36157	1.46503	
3931.0	0.0	1.3667	1.46558	
3932.0	0.0	1.37219	1.46631	
3933.0	0.0	1.37915	1.46906	
3934.0	0.0	1.38428	1.47363	
3935.0	0.0	1.38501	1.47437	
3936.0	0.0	1.38391	1.47858	
3937.0	0.0	1.38208	1.47565	
3938.0	0.0	1.37842	1.47688	
3939.0	0.0	1.37402	1.46045	
3940.0	0.0	1.36963	1.43555	
3941.0	0.0	1.36707	1.40881	
3942.0	0.0	1.36597	1.38135	
3943.0	0.0	1.36523	1.35791	
3944.0	0.0	1.36597	1.33777	
3945.0	0.0	1.36597	1.31451	
3946.0	0.0	1.3667	1.30225	
3947.0	0.0	1.3656	1.28101	
3948.0	0.0	1.36469	1.24896	
3949.0	0.0	1.3623	1.22534	
3950.0	0.0	1.35938	1.18781	
3951.0	0.0	1.35718	1.14716	
3952.0	0.0	1.35461	1.11108	
3953.0	0.0	1.35278	1.07483	
3954.0	0.0	1.3493	1.04865	
3955.0	0.0	1.34326	1.02667	
3956.0	0.0	1.33594	1.00745	
3957.0	0.0	1.32733	0.98804	
3958.0	0.0	1.31799	0.96405	
3959.0	0.0	1.30994	0.93782	
3960.0	0.0	1.30298	0.91425	
3961.0	0.0	1.29712	0.88367	
3962.0	0.0	1.29126	0.85162	
3963.0	0.0	1.2832	0.81775	
3964.0	0.0	1.27588	0.78406	
3965.0	0.0	1.26672	0.75032	
3966.0	0.0	1.2583	0.71521	
3967.0	0.0	1.24988	0.68079	
3968.0	0.0	1.24438	0.64856	
3969.0	0.0	1.24072	0.62128	
3970.0	0.0	1.23779	0.59656	
3971.0	0.0	1.2334	0.57147	
3972.0	0.0	1.22827	0.54419	
3973.0	0.0	1.22168	0.51562	
3974.0	0.0	1.21472	0.49622	
3975.0	0.0	1.20667	0.45886	
3976.0	0.0	1.19788	0.42444	
3977.0	0.0	1.18799	0.39258	
3978.0	0.0	1.17627	0.37527	
3979.0	0.0	1.16565	0.3371	
3980.0	0.0	1.15503	0.30432	
3981.0	0.0	1.14404	0.27429	
3982.0	0.0	1.13397	0.2406	
3983.0	0.0	1.12354	0.19647	
3984.0	0.0	1.11621	0.16736	
3985.0	0.0	1.10925	0.12213	
3986.0	0.0	1.10376	0.0791	
3987.0	0.0	1.09753	0.04779	
3988.0	0.0	1.09204	0.01263	
3989.0	0.0	1.08655	-0.02472	
3990.0	0.0	1.08142	-0.05475	
3991.0	0.0	1.07666	-0.0954	
3992.0	0.0	1.073	-0.13843	
3993.0	0.0	1.06934	-0.18274	
3994.0	0.0	1.06567	-0.2265	
3995.0	0.0	1.06274	-0.26898	
3996.0	0.0	1.05981	-0.28949	
3997.0	0.0	1.05615	-0.32291	
3998.0	0.0	1.05286	-0.35266	
3999.0	0.0	1.04901	-0.3999	
4000.0	0.0	1.0459	-0.42462	
4001.0	0.0	1.0426	-0.46362	
4002.0	0.0	1.04095	-0.48871	
4003.0	0.0	1.0415	-0.52524	
4004.0	0.0	1.0437	-0.56085	
4005.0	0.0	1.0481	-0.57843	
4006.0	0.0	1.05322	-0.6004	
4007.0	0.0	1.05927	-0.63148	
4008.0	0.0	1.06512	-0.64655	
4009.0	0.0	1.07336	-0.6785	
4010.0	0.0	1.08142	-0.68591	
4011.0	0.0	1.08875	-0.70551	
4012.0	0.0	1.09314	-0.72253	
4013.0	0.0	1.0979	-0.74799	
4014.0	0.0	1.10193	-0.77893	
4015.0	0.0	1.10669	-0.79468	
4016.0	0.0	1.11292	-0.80585	
4017.0	0.0	1.12207	-0.82214	
4018.0	0.0	1.13086	-0.84521	
4019.0	0.0	1.14038	-0.84796	
4020.0	0.0	1.14807	-0.85931	
4021.0	0.0	1.15356	-0.87213	
4022.0	0.0	1.15869	-0.89145	
4023.0	0.0	1.16162	-0.91003	
4024.0	0.0	1.16528	-0.92523	
4025.0	0.0	1.16968	-0.94702	
4026.0	0.0	1.17334	-0.95554	
4027.0	0.0	1.1792	-0.9657	
4028.0	0.0	1.18469	-0.97595	
4029.0	0.0	1.19165	-1.00461	
4030.0	0.0	1.19678	-1.00635	
4031.0	0.0	1.20227	-1.01761	
4032.0	0.0	1.20667	-1.034	
4033.0	0.0	1.21143	-1.02063	
4034.0	0.0	1.21509	-1.02374	
4035.0	0.0	1.21655	-1.02672	
4036.0	0.0	1.21729	-1.03413	
4037.0	0.0	1.21765	-1.03931	
4038.0	0.0	1.21619	-1.04425	
4039.0	0.0	1.21472	-1.06467	
4040.0	0.0	1.21289	-1.06613	
4041.0	0.0	1.21088	-1.07071	
4042.0	0.0	1.20923	-1.08252	
4043.0	0.0	1.20996	-1.09341	
4044.0	0.0	1.21069	-1.09763	
4045.0	0.0	1.21582	-1.10907	
4046.0	0.0	1.22351	-1.11497	
4047.0	0.0	1.23486	-1.10587	
4048.0	0.0	1.24658	-1.10962	
4049.0	0.0	1.25867	-1.11868	
4050.0	0.0	1.27075	-1.12372	
4051.0	0.0	1.2821	-1.138	
4052.0	0.0	1.29163	-1.15118	
4053.0	0.0	1.30005	-1.16364	
4054.0	0.0	1.30701	-1.17554	
4055.0	0.0	1.31287	-1.18771	
4056.0	0.0	1.31763	-1.19678	
4057.0	0.0	1.32129	-1.19824	
4058.0	0.0	1.32422	-1.20135	
4059.0	0.0	1.32715	-1.22168	
4060.0	0.0	1.32971	-1.21783	
4061.0	0.0	1.33081	-1.23528	
4062.0	0.0	1.33228	-1.24905	
4063.0	0.0	1.33191	-1.25482	
4064.0	0.0	1.33008	-1.26031	
4065.0	0.0	1.32642	-1.25757	
4066.0	0.0	1.32275	-1.27432	
4067.0	0.0	1.31909	-1.29277	
4068.0	0.0	1.31653	-1.29108	
4069.0	0.0	1.31396	-1.30623	
4070.0	0.0	1.31067	-1.32545	
4071.0	0.0	1.30737	-1.32271	
4072.0	0.0	1.30151	-1.33484	
4073.0	0.0	1.29309	-1.35114	
4074.0	0.0	1.2832	-1.34431	
4075.0	0.0	1.27057	-1.35388	
4076.0	0.0	1.25464	-1.3661	
4077.0	0.0	1.2356	-1.3569	
4078.0	0.0	1.21436	-1.3661	
4079.0	0.0	1.19714	-1.36986	
4080.0	0.0	1.1825	-1.37659	
4081.0	0.0	1.16986	-1.3884	
4082.0	0.0	1.15942	-1.39824	
4083.0	0.0	1.15063	-1.39677	
4084.0	0.0	1.14185	-1.38826	
4085.0	0.0	1.13599	-1.39874	
4086.0	0.0	1.13049	-1.39581	
4087.0	0.0	1.12573	-1.38881	
4088.0	0.0	1.12207	-1.39838	
4089.0	0.0	1.12097	-1.39769	
4090.0	0.0	1.12024	-1.39952	
4091.0	0.0	1.12061	-1.39705	
4092.0	0.0	1.11987	-1.38982	
4093.0	0.0	1.11987	-1.38716	
4094.0	0.0	1.11877	-1.38643	
4095.0	0.0	1.11877	-1.3781	
4096.0	0.0	1.11786	-1.3835	
4097.0	0.0	1.11511	-1.38721	
4098.0	0.0	1.11145	-1.39403	
4099.0	0.0	1.10596	-1.40176	
4100.0	0.0	1.099	-1.40872	
4101.0	0.0	1.09204	-1.40611	
4102.0	0.0	1.08325	-1.40987	
4103.0	0.0	1.073	-1.40616	
4104.0	0.0	1.05981	-1.41412	
4105.0	0.0	1.047	-1.40437	
4106.0	0.0	1.03308	-1.41692	
4107.0	0.0	1.01953	-1.41577	
4108.0	0.0	1.00745	-1.41472	
4109.0	0.0	0.99719	-1.41568	
4110.0	0.0	0.98877	-1.42488	
4111.0	0.0	0.98218	-1.42566	
4112.0	0.0	0.97559	-1.43683	
4113.0	0.0	0.97064	-1.43399	
4114.0	0.0	0.96625	-1.43701	
4115.0	0.0	0.96021	-1.44333	
4116.0	0.0	0.95471	-1.43472	
4117.0	0.0	0.94995	-1.44104	
4118.0	0.0	0.94409	-1.43106	
4119.0	0.0	0.93842	-1.43468	
4120.0	0.0	0.93164	-1.43253	
4121.0	0.0	0.92505	-1.44031	
4122.0	0.0	0.91772	-1.43518	
4123.0	0.0	0.90894	-1.4371	
4124.0	0.0	0.89941	-1.44209	
4125.0	0.0	0.89026	-1.43239	
4126.0	0.0	0.88	-1.43253	
4127.0	0.0	0.87177	-1.423	
4128.0	0.0	0.86426	-1.42104	
4129.0	0.0	0.86279	-1.42213	
4130.0	0.0	0.86682	-1.42795	
4131.0	0.0	0.87524	-1.43912	
4132.0	0.0	0.88696	-1.44099	
4133.0	0.0	0.89722	-1.43692	
4134.0	0.0	0.90765	-1.43486	
4135.0	0.0	0.91626	-1.44411	
4136.0	0.0	0.92578	-1.44008	
4137.0	0.0	0.9353	-1.43811	
4138.0	0.0	0.94592	-1.43985	
4139.0	0.0	0.95618	-1.44791	
4140.0	0.0	0.96606	-1.4437	
4141.0	0.0	0.97705	-1.44717	
4142.0	0.0	0.98877	-1.44594	
4143.0	0.0	1.00049	-1.45317	
4144.0	0.0	1.00891	-1.45583	
4145.0	0.0	1.01733	-1.46022	
4146.0	0.0	1.02502	-1.45628	
4147.0	0.0	1.03088	-1.45088	
4148.0	0.0	1.03784	-1.45583	
4149.0	0.0	1.04443	-1.45152	
4150.0	0.0	1.05157	-1.45276	
4151.0	0.0	1.05762	-1.45775	
4152.0	0.0	1.06238	-1.4637	
4153.0	0.0	1.06494	-1.4626	
4154.0	0.0	1.06641	-1.46132	
4155.0	0.0	1.06641	-1.47029	
4156.0	0.0	1.06531	-1.46873	
4157.0	0.0	1.06604	-1.47011	
4158.0	0.0	1.06567	-1.47144	
4159.0	0.0	1.0675	-1.4707	
4160.0	0.0	1.06897	-1.47144	
4161.0	0.0	1.07227	-1.47047	
4162.0	0.0	1.07556	-1.46965	
4163.0	0.0	1.08032	-1.46512	
4164.0	0.0	1.08691	-1.47263	
4165.0	0.0	1.09351	-1.47272	
4166.0	0.0	1.10083	-1.47464	
4167.0	0.0	1.10596	-1.47066	
4168.0	0.0	1.11108	-1.46933	
4169.0	0.0	1.11438	-1.47679	
4170.0	0.0	1.11621	-1.47528	
4171.0	0.0	1.11731	-1.4789	
4172.0	0.0	1.11914	-1.481	
4173.0	0.0	1.12207	-1.48132	
4174.0	0.0	1.12756	-1.47816	
4175.0	0.0	1.13269	-1.47661	
4176.0	0.0	1.13745	-1.47711	
4177.0	0.0	1.14001	-1.47725	
4178.0	0.0	1.14001	-1.47208	
4179.0	0.0	1.13745	-1.47922	
4180.0	0.0	1.13232	-1.48114	
4181.0	0.0	1.12573	-1.48224	
4182.0	0.0	1.11914	-1.4832	
4183.0	0.0	1.11218	-1.48439	
4184.0	0.0	1.10669	-1.4837	
4185.0	0.0	1.10083	-1.48434	
