# OpenSignals Text File Format. Version 1
# {"00:07:80:4B:29:5A": {"position": 0, "device": "biosignalsplux", "device name": "00:07:80:4B:29:5A", "device connection": "/dev/tty.biosignalsplux-Bluetoot", "sampling rate": 100, "resolution": [16, 16], "firmware version": 776, "comments": "", "keywords": "", "mode": 0, "sync interval": 2, "date": "2022-5-4", "time": "14:20:2.127", "channels": [1, 2], "sensor": ["RESPIRATION", "RESPIRATION"], "label": ["CH1", "CH2"], "column": ["nSeq", "DI", "CH1", "CH2"], "special": [{"SpO2": [80, 40, 5, 4, 3, 3]}, {"SpO2": [80, 40, 5, 4, 3, 3]}, {"SpO2": [80, 40, 5, 4, 3, 3]}, {"SpO2": [80, 40, 5, 4, 3, 3]}, {"SpO2": [80, 40, 5, 4, 3, 3]}, {"SpO2": [80, 40, 5, 4, 3, 3]}, {"SpO2": [80, 40, 5, 4, 3, 3]}, {"SpO2": [80, 40, 5, 4, 3, 3]}], "digital IO": [0, 1], "sleeve color": ["red", ""], "convertedValues": 1}}
# EndOfHeader
0.0	0.0	1.40552	-0.80566	
1.0	0.0	1.39838	-0.81148	
2.0	0.0	1.38794	-0.82343	
3.0	0.0	1.37366	-0.82892	
4.0	0.0	1.35754	-0.8454	
5.0	0.0	1.33887	-0.84192	
6.0	0.0	1.32019	-0.84988	
7.0	0.0	1.29529	-0.85977	
8.0	0.0	1.27039	-0.8649	
9.0	0.0	1.24146	-0.87671	
10.0	0.0	1.21289	-0.88715	
11.0	0.0	1.1825	-0.88472	
12.0	0.0	1.15466	-0.88403	
13.0	0.0	1.12683	-0.89117	
14.0	0.0	1.10156	-0.90179	
15.0	0.0	1.07556	-0.89754	
16.0	0.0	1.05212	-0.88275	
17.0	0.0	1.02832	-0.8801	
18.0	0.0	1.00745	-0.87355	
19.0	0.0	0.98511	-0.87918	
20.0	0.0	0.96533	-0.85657	
21.0	0.0	0.94336	-0.85107	
22.0	0.0	0.92139	-0.84064	
23.0	0.0	0.89429	-0.83496	
24.0	0.0	0.86572	-0.83368	
25.0	0.0	0.83386	-0.82608	
26.0	0.0	0.80292	-0.80328	
27.0	0.0	0.77051	-0.80585	
28.0	0.0	0.73901	-0.78534	
29.0	0.0	0.70715	-0.77838	
30.0	0.0	0.67676	-0.76556	
31.0	0.0	0.646	-0.75412	
32.0	0.0	0.61615	-0.74854	
33.0	0.0	0.58594	-0.7402	
34.0	0.0	0.55811	-0.72272	
35.0	0.0	0.53027	-0.71384	
36.0	0.0	0.50482	-0.69287	
37.0	0.0	0.48083	-0.68564	
38.0	0.0	0.45923	-0.67255	
39.0	0.0	0.43872	-0.65121	
40.0	0.0	0.42041	-0.63885	
41.0	0.0	0.40173	-0.6275	
42.0	0.0	0.3847	-0.6053	
43.0	0.0	0.36859	-0.60022	
44.0	0.0	0.35248	-0.58914	
45.0	0.0	0.33508	-0.56909	
46.0	0.0	0.31732	-0.57312	
47.0	0.0	0.29681	-0.56085	
48.0	0.0	0.27576	-0.54437	
49.0	0.0	0.25214	-0.5517	
50.0	0.0	0.22943	-0.54437	
51.0	0.0	0.20764	-0.5343	
52.0	0.0	0.1886	-0.53687	
53.0	0.0	0.17065	-0.54126	
54.0	0.0	0.15527	-0.53842	
55.0	0.0	0.13916	-0.53467	
56.0	0.0	0.12378	-0.53229	
57.0	0.0	0.10785	-0.52734	
58.0	0.0	0.09393	-0.51709	
59.0	0.0	0.08093	-0.51379	
60.0	0.0	0.07068	-0.50317	
61.0	0.0	0.06152	-0.48889	
62.0	0.0	0.05511	-0.48615	
63.0	0.0	0.04834	-0.47223	
64.0	0.0	0.04321	-0.4563	
65.0	0.0	0.03497	-0.45612	
66.0	0.0	0.02692	-0.44348	
67.0	0.0	0.01611	-0.43707	
68.0	0.0	0.00494	-0.42645	
69.0	0.0	-0.00861	-0.42133	
70.0	0.0	-0.02087	-0.40942	
71.0	0.0	-0.03369	-0.4021	
72.0	0.0	-0.04395	-0.39386	
73.0	0.0	-0.05402	-0.38699	
74.0	0.0	-0.06116	-0.38013	
75.0	0.0	-0.06885	-0.37335	
76.0	0.0	-0.07416	-0.36639	
77.0	0.0	-0.0813	-0.35944	
78.0	0.0	-0.08698	-0.35037	
79.0	0.0	-0.09302	-0.34241	
80.0	0.0	-0.09851	-0.33389	
81.0	0.0	-0.10364	-0.32593	
82.0	0.0	-0.10675	-0.31924	
83.0	0.0	-0.10968	-0.31256	
84.0	0.0	-0.11023	-0.30688	
85.0	0.0	-0.1106	-0.30121	
86.0	0.0	-0.11023	-0.29471	
87.0	0.0	-0.10986	-0.28857	
88.0	0.0	-0.10803	-0.28033	
89.0	0.0	-0.10748	-0.27338	
90.0	0.0	-0.10492	-0.26843	
91.0	0.0	-0.10181	-0.26349	
92.0	0.0	-0.09668	-0.25781	
93.0	0.0	-0.09082	-0.25392	
94.0	0.0	-0.08258	-0.24976	
95.0	0.0	-0.07507	-0.24609	
96.0	0.0	-0.06702	-0.24243	
97.0	0.0	-0.06152	-0.23932	
98.0	0.0	-0.0564	-0.23639	
99.0	0.0	-0.05493	-0.23364	
100.0	0.0	-0.05475	-0.23108	
101.0	0.0	-0.05859	-0.22906	
102.0	0.0	-0.06409	-0.2265	
103.0	0.0	-0.07416	-0.22321	
104.0	0.0	-0.08496	-0.21973	
105.0	0.0	-0.09943	-0.2135	
106.0	0.0	-0.11517	-0.21066	
107.0	0.0	-0.13293	-0.20901	
108.0	0.0	-0.15088	-0.20874	
109.0	0.0	-0.17139	-0.20544	
110.0	0.0	-0.19446	-0.2049	
111.0	0.0	-0.22229	-0.19867	
112.0	0.0	-0.25287	-0.2038	
113.0	0.0	-0.28821	-0.19592	
114.0	0.0	-0.32538	-0.19739	
115.0	0.0	-0.36584	-0.2005	
116.0	0.0	-0.40576	-0.19135	
117.0	0.0	-0.44879	-0.19235	
118.0	0.0	-0.492	-0.19354	
119.0	0.0	-0.53943	-0.19446	
120.0	0.0	-0.59052	-0.20636	
121.0	0.0	-0.64215	-0.20654	
122.0	0.0	-0.69049	-0.1983	
123.0	0.0	-0.73627	-0.21387	
124.0	0.0	-0.77893	-0.22192	
125.0	0.0	-0.81958	-0.22861	
126.0	0.0	-0.85822	-0.23181	
127.0	0.0	-0.8941	-0.2298	
128.0	0.0	-0.92853	-0.2514	
129.0	0.0	-0.96039	-0.24866	
130.0	0.0	-0.99097	-0.25626	
131.0	0.0	-1.01953	-0.2569	
132.0	0.0	-1.04663	-0.26733	
133.0	0.0	-1.0719	-0.26605	
134.0	0.0	-1.09625	-0.27539	
135.0	0.0	-1.11909	-0.27759	
136.0	0.0	-1.1402	-0.29352	
137.0	0.0	-1.16071	-0.2981	
138.0	0.0	-1.1797	-0.30322	
139.0	0.0	-1.19778	-0.32446	
140.0	0.0	-1.21458	-0.33655	
141.0	0.0	-1.23065	-0.34167	
142.0	0.0	-1.24612	-0.35486	
143.0	0.0	-1.26013	-0.37061	
144.0	0.0	-1.27386	-0.38232	
145.0	0.0	-1.287	-0.40869	
146.0	0.0	-1.29877	-0.4162	
147.0	0.0	-1.31012	-0.44586	
148.0	0.0	-1.32042	-0.46463	
149.0	0.0	-1.33067	-0.47223	
150.0	0.0	-1.34006	-0.49933	
151.0	0.0	-1.34912	-0.49713	
152.0	0.0	-1.35489	-0.52203	
153.0	0.0	-1.35782	-0.53558	
154.0	0.0	-1.35352	-0.54913	
155.0	0.0	-1.34358	-0.54163	
156.0	0.0	-1.32733	-0.5517	
157.0	0.0	-1.30774	-0.56213	
158.0	0.0	-1.28311	-0.57385	
159.0	0.0	-1.25528	-0.55902	
160.0	0.0	-1.22241	-0.56982	
161.0	0.0	-1.18634	-0.5679	
162.0	0.0	-1.1451	-0.55481	
163.0	0.0	-1.10188	-0.55792	
164.0	0.0	-1.05542	-0.5462	
165.0	0.0	-1.00809	-0.54163	
166.0	0.0	-0.95737	-0.53741	
167.0	0.0	-0.90491	-0.53119	
168.0	0.0	-0.84595	-0.52844	
169.0	0.0	-0.78333	-0.5224	
170.0	0.0	-0.71686	-0.51636	
171.0	0.0	-0.64819	-0.51398	
172.0	0.0	-0.57678	-0.51453	
173.0	0.0	-0.5061	-0.5072	
174.0	0.0	-0.43634	-0.49695	
175.0	0.0	-0.37061	-0.49365	
176.0	0.0	-0.30853	-0.48651	
177.0	0.0	-0.25012	-0.48138	
178.0	0.0	-0.19464	-0.47351	
179.0	0.0	-0.14282	-0.466	
180.0	0.0	-0.09265	-0.45776	
181.0	0.0	-0.04688	-0.44275	
182.0	0.0	-0.0011	-0.43094	
183.0	0.0	0.0401	-0.43048	
184.0	0.0	0.08057	-0.41835	
185.0	0.0	0.11774	-0.41437	
186.0	0.0	0.15253	-0.40521	
187.0	0.0	0.18494	-0.39606	
188.0	0.0	0.21515	-0.388	
189.0	0.0	0.24243	-0.37939	
190.0	0.0	0.27026	-0.36969	
191.0	0.0	0.29535	-0.35724	
192.0	0.0	0.3208	-0.34717	
193.0	0.0	0.34424	-0.34387	
194.0	0.0	0.36841	-0.33435	
195.0	0.0	0.39221	-0.31842	
196.0	0.0	0.41711	-0.30991	
197.0	0.0	0.44165	-0.29443	
198.0	0.0	0.46783	-0.28363	
199.0	0.0	0.4931	-0.27155	
200.0	0.0	0.52002	-0.25049	
201.0	0.0	0.54694	-0.24078	
202.0	0.0	0.57458	-0.22595	
203.0	0.0	0.60114	-0.20581	
204.0	0.0	0.62769	-0.19556	
205.0	0.0	0.65259	-0.17139	
206.0	0.0	0.67529	-0.15912	
207.0	0.0	0.69653	-0.14941	
208.0	0.0	0.71631	-0.1322	
209.0	0.0	0.73389	-0.12488	
210.0	0.0	0.75165	-0.104	
211.0	0.0	0.76776	-0.10236	
212.0	0.0	0.78333	-0.08331	
213.0	0.0	0.79688	-0.06738	
214.0	0.0	0.81024	-0.07104	
215.0	0.0	0.82306	-0.05109	
216.0	0.0	0.83624	-0.0498	
217.0	0.0	0.84906	-0.03534	
218.0	0.0	0.86389	-0.02161	
219.0	0.0	0.87799	-0.02032	
220.0	0.0	0.89246	-0.01099	
221.0	0.0	0.90601	-0.00421	
222.0	0.0	0.92084	-0.00183	
223.0	0.0	0.93384	0.01208	
224.0	0.0	0.94702	0.01245	
225.0	0.0	0.96057	0.03131	
226.0	0.0	0.97559	0.0412	
227.0	0.0	0.98877	0.04706	
228.0	0.0	1.00305	0.05438	
229.0	0.0	1.01733	0.05676	
230.0	0.0	1.03052	0.06537	
231.0	0.0	1.0437	0.06628	
232.0	0.0	1.05762	0.06775	
233.0	0.0	1.06787	0.08258	
234.0	0.0	1.07922	0.08002	
235.0	0.0	1.08875	0.08496	
236.0	0.0	1.0979	0.08807	
237.0	0.0	1.10413	0.09521	
238.0	0.0	1.11108	0.09888	
239.0	0.0	1.11694	0.10089	
240.0	0.0	1.11987	0.09407	
241.0	0.0	1.12244	0.11462	
242.0	0.0	1.12573	0.11389	
243.0	0.0	1.12793	0.12561	
244.0	0.0	1.12976	0.12598	
245.0	0.0	1.13086	0.13184	
246.0	0.0	1.13196	0.14026	
247.0	0.0	1.13306	0.14081	
248.0	0.0	1.13452	0.14465	
249.0	0.0	1.13489	0.15344	
250.0	0.0	1.13672	0.15326	
251.0	0.0	1.13745	0.15527	
252.0	0.0	1.13855	0.16187	
253.0	0.0	1.13965	0.16022	
254.0	0.0	1.14038	0.16406	
255.0	0.0	1.13965	0.1626	
256.0	0.0	1.14056	0.15637	
257.0	0.0	1.13965	0.16754	
258.0	0.0	1.14001	0.1637	
259.0	0.0	1.13965	0.17139	
260.0	0.0	1.14001	0.16882	
261.0	0.0	1.14075	0.16589	
262.0	0.0	1.14075	0.16296	
263.0	0.0	1.14166	0.16479	
264.0	0.0	1.14258	0.17908	
265.0	0.0	1.14185	0.17294	
266.0	0.0	1.14185	0.17908	
267.0	0.0	1.14111	0.17358	
268.0	0.0	1.14038	0.17606	
269.0	0.0	1.13818	0.17725	
270.0	0.0	1.13855	0.16956	
271.0	0.0	1.13672	0.17542	
272.0	0.0	1.13672	0.17249	
273.0	0.0	1.13599	0.17285	
274.0	0.0	1.13745	0.16278	
275.0	0.0	1.13818	0.15912	
276.0	0.0	1.13965	0.16663	
277.0	0.0	1.14038	0.16553	
278.0	0.0	1.14185	0.16241	
279.0	0.0	1.14185	0.16296	
280.0	0.0	1.14221	0.15216	
281.0	0.0	1.14258	0.15894	
282.0	0.0	1.14423	0.15674	
283.0	0.0	1.14441	0.15948	
284.0	0.0	1.14404	0.15417	
285.0	0.0	1.14423	0.15985	
286.0	0.0	1.14404	0.14319	
287.0	0.0	1.14368	0.15417	
288.0	0.0	1.14587	0.14081	
289.0	0.0	1.14807	0.15216	
290.0	0.0	1.15265	0.15143	
291.0	0.0	1.15576	0.14172	
292.0	0.0	1.16052	0.14081	
293.0	0.0	1.16309	0.15088	
294.0	0.0	1.16748	0.15637	
295.0	0.0	1.17004	0.15271	
296.0	0.0	1.1748	0.15564	
297.0	0.0	1.177	0.15674	
298.0	0.0	1.18085	0.16077	
299.0	0.0	1.18433	0.16534	
300.0	0.0	1.18726	0.16644	
301.0	0.0	1.18799	0.16772	
302.0	0.0	1.19019	0.17395	
303.0	0.0	1.18945	0.16992	
304.0	0.0	1.19092	0.1712	
305.0	0.0	1.19092	0.1723	
306.0	0.0	1.19385	0.16168	
307.0	0.0	1.1955	0.1712	
308.0	0.0	1.19824	0.1701	
309.0	0.0	1.20117	0.16498	
310.0	0.0	1.20502	0.16095	
311.0	0.0	1.2074	0.15527	
312.0	0.0	1.21179	0.15656	
313.0	0.0	1.21472	0.1474	
314.0	0.0	1.21948	0.13916	
315.0	0.0	1.22241	0.14154	
316.0	0.0	1.22534	0.13477	
317.0	0.0	1.22827	0.13385	
318.0	0.0	1.23157	0.13037	
319.0	0.0	1.23431	0.13568	
320.0	0.0	1.23779	0.11188	
321.0	0.0	1.242	0.1084	
322.0	0.0	1.24695	0.10767	
323.0	0.0	1.25244	0.11792	
324.0	0.0	1.25903	0.12231	
325.0	0.0	1.26489	0.117	
326.0	0.0	1.27295	0.11334	
327.0	0.0	1.27954	0.11572	
328.0	0.0	1.28723	0.11829	
329.0	0.0	1.29419	0.12085	
330.0	0.0	1.30151	0.11682	
331.0	0.0	1.30664	0.12799	
332.0	0.0	1.31232	0.12103	
333.0	0.0	1.31763	0.12891	
334.0	0.0	1.32239	0.12799	
335.0	0.0	1.32715	0.11737	
336.0	0.0	1.33301	0.1322	
337.0	0.0	1.33813	0.1333	
338.0	0.0	1.34473	0.13495	
339.0	0.0	1.35168	0.13531	
340.0	0.0	1.35883	0.1377	
341.0	0.0	1.36743	0.14044	
342.0	0.0	1.37549	0.12506	
343.0	0.0	1.38281	0.12762	
344.0	0.0	1.39014	0.14813	
345.0	0.0	1.39709	0.13531	
346.0	0.0	1.40259	0.13953	
347.0	0.0	1.40771	0.14648	
348.0	0.0	1.41357	0.13568	
349.0	0.0	1.4176	0.14484	
350.0	0.0	1.4231	0.1441	
351.0	0.0	1.42749	0.14594	
352.0	0.0	1.43188	0.14374	
353.0	0.0	1.43481	0.1452	
354.0	0.0	1.43921	0.14667	
355.0	0.0	1.44287	0.12781	
356.0	0.0	1.4469	0.1468	
357.0	0.0	1.44983	0.1474	
358.0	0.0	1.45203	0.14941	
359.0	0.0	1.45496	0.14209	
360.0	0.0	1.45752	0.15491	
361.0	0.0	1.46027	0.15253	
362.0	0.0	1.46265	0.15216	
363.0	0.0	1.46466	0.14282	
364.0	0.0	1.46686	0.1582	
365.0	0.0	1.46777	0.16351	
366.0	0.0	1.46997	0.16205	
367.0	0.0	1.4707	0.14667	
368.0	0.0	1.47253	0.16315	
369.0	0.0	1.47327	0.15875	
370.0	0.0	1.47437	0.16782	
371.0	0.0	1.47583	0.17029	
372.0	0.0	1.47748	0.17267	
373.0	0.0	1.47949	0.1701	
374.0	0.0	1.48022	0.17688	
375.0	0.0	1.48022	0.18018	
376.0	0.0	1.48169	0.16351	
377.0	0.0	1.48279	0.18274	
378.0	0.0	1.48352	0.17908	
379.0	0.0	1.48389	0.18951	
380.0	0.0	1.48535	0.19574	
381.0	0.0	1.48499	0.18146	
382.0	0.0	1.48499	0.20508	
383.0	0.0	1.48389	0.19244	
384.0	0.0	1.48352	0.21094	
385.0	0.0	1.48206	0.21808	
386.0	0.0	1.48022	0.21185	
387.0	0.0	1.47693	0.22852	
388.0	0.0	1.4762	0.23254	
389.0	0.0	1.47308	0.22229	
390.0	0.0	1.4718	0.23914	
391.0	0.0	1.46997	0.23895	
392.0	0.0	1.47034	0.22467	
393.0	0.0	1.46887	0.24133	
394.0	0.0	1.46924	0.25159	
395.0	0.0	1.46777	0.23181	
396.0	0.0	1.46704	0.25452	
397.0	0.0	1.46558	0.25415	
398.0	0.0	1.46301	0.25671	
399.0	0.0	1.46008	0.25928	
400.0	0.0	1.45569	0.26807	
401.0	0.0	1.45093	0.26985	
402.0	0.0	1.44617	0.2677	
403.0	0.0	1.44067	0.27063	
404.0	0.0	1.43774	0.27319	
405.0	0.0	1.43262	0.27576	
406.0	0.0	1.43005	0.27887	
407.0	0.0	1.42712	0.28711	
408.0	0.0	1.42566	0.28217	
409.0	0.0	1.42236	0.28015	
410.0	0.0	1.42163	0.27448	
411.0	0.0	1.4209	0.28363	
412.0	0.0	1.4198	0.28436	
413.0	0.0	1.41907	0.28986	
414.0	0.0	1.41943	0.27979	
415.0	0.0	1.4198	0.29041	
416.0	0.0	1.4209	0.30029	
417.0	0.0	1.422	0.30743	
418.0	0.0	1.42621	0.2948	
419.0	0.0	1.43115	0.29846	
420.0	0.0	1.43738	0.30615	
421.0	0.0	1.4425	0.32611	
422.0	0.0	1.44763	0.33582	
423.0	0.0	1.45166	0.34882	
424.0	0.0	1.45679	0.34991	
425.0	0.0	1.46008	0.36823	
426.0	0.0	1.46338	0.37527	
427.0	0.0	1.46704	0.37885	
428.0	0.0	1.46997	0.39606	
429.0	0.0	1.4718	0.38727	
430.0	0.0	1.4751	0.38159	
431.0	0.0	1.47766	0.39148	
432.0	0.0	1.47803	0.38196	
433.0	0.0	1.48096	0.3609	
434.0	0.0	1.48206	0.36566	
435.0	0.0	1.48334	0.36328	
436.0	0.0	1.48499	0.36017	
437.0	0.0	1.48608	0.35651	
438.0	0.0	1.48755	0.3457	
439.0	0.0	1.48718	0.34012	
440.0	0.0	1.48755	0.33435	
441.0	0.0	1.48755	0.32574	
442.0	0.0	1.48755	0.31403	
443.0	0.0	1.48535	0.31018	
444.0	0.0	1.48499	0.31641	
445.0	0.0	1.48352	0.29828	
446.0	0.0	1.48389	0.28876	
447.0	0.0	1.48315	0.28949	
448.0	0.0	1.48462	0.28619	
449.0	0.0	1.48462	0.27466	
450.0	0.0	1.48535	0.28473	
451.0	0.0	1.48462	0.2644	
452.0	0.0	1.48608	0.26074	
453.0	0.0	1.48535	0.25653	
454.0	0.0	1.48608	0.23749	
455.0	0.0	1.48499	0.23328	
456.0	0.0	1.48535	0.22394	
457.0	0.0	1.48389	0.2179	
458.0	0.0	1.48389	0.21126	
459.0	0.0	1.48407	0.18878	
460.0	0.0	1.48608	0.19739	
461.0	0.0	1.487	0.19739	
462.0	0.0	1.48828	0.18365	
463.0	0.0	1.48865	0.17798	
464.0	0.0	1.48938	0.17249	
465.0	0.0	1.48938	0.15573	
466.0	0.0	1.49011	0.16058	
467.0	0.0	1.48865	0.16901	
468.0	0.0	1.48608	0.17212	
469.0	0.0	1.47876	0.1767	
470.0	0.0	1.4707	0.1734	
471.0	0.0	1.45898	0.19299	
472.0	0.0	1.44507	0.19867	
473.0	0.0	1.42749	0.19464	
474.0	0.0	1.40881	0.22119	
475.0	0.0	1.38611	0.22742	
476.0	0.0	1.3623	0.2406	
477.0	0.0	1.33521	0.25195	
478.0	0.0	1.30994	0.25909	
479.0	0.0	1.2832	0.27246	
480.0	0.0	1.25903	0.28656	
481.0	0.0	1.23633	0.28162	
482.0	0.0	1.21509	0.30469	
483.0	0.0	1.19421	0.32465	
484.0	0.0	1.17627	0.33691	
485.0	0.0	1.15594	0.34863	
486.0	0.0	1.13745	0.36401	
487.0	0.0	1.12024	0.37463	
488.0	0.0	1.10303	0.38452	
489.0	0.0	1.08801	0.39203	
490.0	0.0	1.07336	0.40485	
491.0	0.0	1.05872	0.40649	
492.0	0.0	1.0459	0.40457	
493.0	0.0	1.03198	0.40942	
494.0	0.0	1.02063	0.41272	
495.0	0.0	1.00928	0.4162	
496.0	0.0	0.99902	0.42023	
497.0	0.0	0.98914	0.42096	
498.0	0.0	0.98145	0.42041	
499.0	0.0	0.97485	0.42224	
500.0	0.0	0.96899	0.42389	
501.0	0.0	0.96277	0.42792	
502.0	0.0	0.95728	0.42719	
503.0	0.0	0.94995	0.42517	
504.0	0.0	0.94263	0.42773	
505.0	0.0	0.93347	0.42865	
506.0	0.0	0.92505	0.42535	
507.0	0.0	0.91406	0.42297	
508.0	0.0	0.90454	0.41821	
509.0	0.0	0.89301	0.4173	
510.0	0.0	0.8822	0.41327	
511.0	0.0	0.87085	0.41217	
512.0	0.0	0.86005	0.40778	
513.0	0.0	0.84851	0.4054	
514.0	0.0	0.83734	0.401	
515.0	0.0	0.82471	0.39825	
516.0	0.0	0.81409	0.39697	
517.0	0.0	0.80273	0.39459	
518.0	0.0	0.79395	0.38892	
519.0	0.0	0.78589	0.38287	
520.0	0.0	0.77893	0.37701	
521.0	0.0	0.77124	0.36823	
522.0	0.0	0.76575	0.36237	
523.0	0.0	0.75952	0.35376	
524.0	0.0	0.75366	0.34845	
525.0	0.0	0.74707	0.34039	
526.0	0.0	0.74121	0.33618	
527.0	0.0	0.73389	0.33014	
528.0	0.0	0.72766	0.32428	
529.0	0.0	0.71887	0.31494	
530.0	0.0	0.71118	0.30414	
531.0	0.0	0.70129	0.29498	
532.0	0.0	0.69269	0.28693	
533.0	0.0	0.68225	0.27448	
534.0	0.0	0.6709	0.26514	
535.0	0.0	0.65845	0.25525	
536.0	0.0	0.64746	0.24554	
537.0	0.0	0.63428	0.23236	
538.0	0.0	0.62329	0.22064	
539.0	0.0	0.61121	0.20416	
540.0	0.0	0.60059	0.18915	
541.0	0.0	0.5896	0.17395	
542.0	0.0	0.57788	0.16095	
543.0	0.0	0.56689	0.15271	
544.0	0.0	0.55554	0.1366	
545.0	0.0	0.54492	0.12268	
546.0	0.0	0.5354	0.11023	
547.0	0.0	0.52808	0.09961	
548.0	0.0	0.52258	0.08441	
549.0	0.0	0.51489	0.06189	
550.0	0.0	0.5094	0.0542	
551.0	0.0	0.50244	0.0412	
552.0	0.0	0.49768	0.02655	
553.0	0.0	0.49182	0.01282	
554.0	0.0	0.48816	0.00092	
555.0	0.0	0.48413	-0.00531	
556.0	0.0	0.48193	-0.01703	
557.0	0.0	0.479	-0.0314	
558.0	0.0	0.47754	-0.04724	
559.0	0.0	0.47479	-0.04999	
560.0	0.0	0.47333	-0.06903	
561.0	0.0	0.46967	-0.08185	
562.0	0.0	0.46802	-0.08698	
563.0	0.0	0.46399	-0.10016	
564.0	0.0	0.46161	-0.11169	
565.0	0.0	0.45776	-0.12579	
566.0	0.0	0.4563	-0.12817	
567.0	0.0	0.45264	-0.14795	
568.0	0.0	0.45154	-0.15674	
569.0	0.0	0.44916	-0.1723	
570.0	0.0	0.44751	-0.17752	
571.0	0.0	0.4444	-0.18457	
572.0	0.0	0.44128	-0.19867	
573.0	0.0	0.43707	-0.20563	
574.0	0.0	0.4325	-0.20901	
575.0	0.0	0.427	-0.20828	
576.0	0.0	0.42114	-0.22009	
577.0	0.0	0.41492	-0.2298	
578.0	0.0	0.40942	-0.2298	
579.0	0.0	0.40393	-0.23456	
580.0	0.0	0.39917	-0.24133	
581.0	0.0	0.39404	-0.24536	
582.0	0.0	0.39075	-0.24866	
583.0	0.0	0.38672	-0.24902	
584.0	0.0	0.38452	-0.24042	
585.0	0.0	0.38123	-0.25397	
586.0	0.0	0.37811	-0.24994	
587.0	0.0	0.37463	-0.24019	
588.0	0.0	0.37244	-0.23914	
589.0	0.0	0.36804	-0.24628	
590.0	0.0	0.36548	-0.23373	
591.0	0.0	0.36108	-0.2373	
592.0	0.0	0.35779	-0.24261	
593.0	0.0	0.35303	-0.24646	
594.0	0.0	0.3501	-0.24637	
595.0	0.0	0.34607	-0.2417	
596.0	0.0	0.34351	-0.24152	
597.0	0.0	0.33856	-0.23969	
598.0	0.0	0.33618	-0.23529	
599.0	0.0	0.33215	-0.23877	
600.0	0.0	0.32922	-0.23763	
601.0	0.0	0.32483	-0.23767	
602.0	0.0	0.32227	-0.23474	
603.0	0.0	0.31787	-0.23199	
604.0	0.0	0.31512	-0.23209	
605.0	0.0	0.31055	-0.23383	
606.0	0.0	0.30798	-0.23309	
607.0	0.0	0.30249	-0.24188	
608.0	0.0	0.30029	-0.2439	
609.0	0.0	0.2959	-0.24664	
610.0	0.0	0.29333	-0.24628	
611.0	0.0	0.28967	-0.24554	
612.0	0.0	0.28711	-0.24207	
613.0	0.0	0.28418	-0.24664	
614.0	0.0	0.28162	-0.24774	
615.0	0.0	0.27759	-0.24756	
616.0	0.0	0.27466	-0.24866	
617.0	0.0	0.27081	-0.24207	
618.0	0.0	0.2677	-0.24976	
619.0	0.0	0.26422	-0.24829	
620.0	0.0	0.26166	-0.23859	
621.0	0.0	0.25781	-0.23767	
622.0	0.0	0.25525	-0.23969	
623.0	0.0	0.25122	-0.24408	
624.0	0.0	0.24866	-0.24005	
625.0	0.0	0.2439	-0.2395	
626.0	0.0	0.24023	-0.2373	
627.0	0.0	0.23547	-0.23438	
628.0	0.0	0.23328	-0.22595	
629.0	0.0	0.23108	-0.23053	
630.0	0.0	0.23163	-0.22742	
631.0	0.0	0.2309	-0.22733	
632.0	0.0	0.23218	-0.22815	
633.0	0.0	0.23218	-0.22668	
634.0	0.0	0.23401	-0.22522	
635.0	0.0	0.23511	-0.22101	
636.0	0.0	0.23804	-0.22229	
637.0	0.0	0.23987	-0.21771	
638.0	0.0	0.24426	-0.21771	
639.0	0.0	0.24719	-0.2168	
640.0	0.0	0.25232	-0.21625	
641.0	0.0	0.25525	-0.20746	
642.0	0.0	0.25891	-0.2113	
643.0	0.0	0.26111	-0.21075	
644.0	0.0	0.2644	-0.20581	
645.0	0.0	0.26678	-0.20535	
646.0	0.0	0.26953	-0.20178	
647.0	0.0	0.27191	-0.20215	
648.0	0.0	0.27521	-0.19885	
649.0	0.0	0.27686	-0.20233	
650.0	0.0	0.27997	-0.20361	
651.0	0.0	0.28125	-0.20416	
652.0	0.0	0.28363	-0.19574	
653.0	0.0	0.28455	-0.1994	
654.0	0.0	0.28564	-0.19894	
655.0	0.0	0.28381	-0.19208	
656.0	0.0	0.28345	-0.19409	
657.0	0.0	0.27979	-0.18951	
658.0	0.0	0.2774	-0.1864	
659.0	0.0	0.27264	-0.18027	
660.0	0.0	0.2688	-0.18365	
661.0	0.0	0.2644	-0.18018	
662.0	0.0	0.26074	-0.17633	
663.0	0.0	0.25708	-0.1702	
664.0	0.0	0.25507	-0.1626	
665.0	0.0	0.25232	-0.15564	
666.0	0.0	0.25214	-0.14795	
667.0	0.0	0.25159	-0.14282	
668.0	0.0	0.25232	-0.1333	
669.0	0.0	0.25195	-0.12286	
670.0	0.0	0.25342	-0.11993	
671.0	0.0	0.25378	-0.11389	
672.0	0.0	0.25415	-0.10638	
673.0	0.0	0.25378	-0.10199	
674.0	0.0	0.25452	-0.09677	
675.0	0.0	0.25452	-0.09302	
676.0	0.0	0.2558	-0.08716	
677.0	0.0	0.25616	-0.08331	
678.0	0.0	0.25891	-0.07709	
679.0	0.0	0.26001	-0.07489	
680.0	0.0	0.26257	-0.07004	
681.0	0.0	0.26404	-0.06555	
682.0	0.0	0.26807	-0.06152	
683.0	0.0	0.27063	-0.05676	
684.0	0.0	0.27429	-0.05164	
685.0	0.0	0.27777	-0.04541	
686.0	0.0	0.28235	-0.04193	
687.0	0.0	0.28528	-0.0368	
688.0	0.0	0.29004	-0.03204	
689.0	0.0	0.29333	-0.02893	
690.0	0.0	0.29773	-0.02325	
691.0	0.0	0.30029	-0.01831	
692.0	0.0	0.30396	-0.01062	
693.0	0.0	0.30615	-0.00256	
694.0	0.0	0.30927	0.00751	
695.0	0.0	0.31146	0.01392	
696.0	0.0	0.31531	0.02106	
697.0	0.0	0.31897	0.02618	
698.0	0.0	0.3241	0.03076	
699.0	0.0	0.32812	0.03644	
700.0	0.0	0.33398	0.04248	
701.0	0.0	0.33838	0.04614	
702.0	0.0	0.34442	0.05292	
703.0	0.0	0.349	0.05859	
704.0	0.0	0.35522	0.06757	
705.0	0.0	0.3598	0.07489	
706.0	0.0	0.36621	0.08643	
707.0	0.0	0.37299	0.09641	
708.0	0.0	0.38196	0.10803	
709.0	0.0	0.39111	0.1181	
710.0	0.0	0.40247	0.12927	
711.0	0.0	0.4129	0.13898	
712.0	0.0	0.42371	0.14978	
713.0	0.0	0.43359	0.15839	
714.0	0.0	0.44458	0.16809	
715.0	0.0	0.45355	0.17816	
716.0	0.0	0.46436	0.19098	
717.0	0.0	0.47424	0.2054	
718.0	0.0	0.48578	0.21808	
719.0	0.0	0.49658	0.23254	
720.0	0.0	0.5083	0.24902	
721.0	0.0	0.51855	0.26257	
722.0	0.0	0.53027	0.27466	
723.0	0.0	0.54126	0.28528	
724.0	0.0	0.55261	0.29425	
725.0	0.0	0.56396	0.30634	
726.0	0.0	0.57788	0.31512	
727.0	0.0	0.59106	0.32227	
728.0	0.0	0.60461	0.32996	
729.0	0.0	0.61743	0.3382	
730.0	0.0	0.63171	0.34369	
731.0	0.0	0.6449	0.35284	
732.0	0.0	0.65845	0.36731	
733.0	0.0	0.6709	0.38232	
734.0	0.0	0.6828	0.40247	
735.0	0.0	0.69067	0.42444	
736.0	0.0	0.698	0.44348	
737.0	0.0	0.70239	0.46838	
738.0	0.0	0.70789	0.48999	
739.0	0.0	0.71118	0.50995	
740.0	0.0	0.71631	0.52936	
741.0	0.0	0.72217	0.55225	
742.0	0.0	0.73242	0.57001	
743.0	0.0	0.74341	0.59418	
744.0	0.0	0.75769	0.6123	
745.0	0.0	0.77087	0.6286	
746.0	0.0	0.78625	0.63611	
747.0	0.0	0.8009	0.65021	
748.0	0.0	0.81482	0.65845	
749.0	0.0	0.82947	0.66431	
750.0	0.0	0.84338	0.67383	
751.0	0.0	0.85547	0.68207	
752.0	0.0	0.86719	0.69141	
753.0	0.0	0.87616	0.69946	
754.0	0.0	0.88477	0.71027	
755.0	0.0	0.89081	0.72253	
756.0	0.0	0.89465	0.73297	
757.0	0.0	0.89795	0.7467	
758.0	0.0	0.90234	0.75824	
759.0	0.0	0.90564	0.77032	
760.0	0.0	0.91187	0.77893	
761.0	0.0	0.91864	0.79541	
762.0	0.0	0.92944	0.80676	
763.0	0.0	0.94043	0.81537	
764.0	0.0	0.95563	0.82617	
765.0	0.0	0.97192	0.83295	
766.0	0.0	0.99023	0.84283	
767.0	0.0	1.00635	0.84833	
768.0	0.0	1.02466	0.85693	
769.0	0.0	1.03931	0.86829	
770.0	0.0	1.05359	0.87286	
771.0	0.0	1.06348	0.88504	
772.0	0.0	1.07318	0.8866	
773.0	0.0	1.07959	0.89978	
774.0	0.0	1.08691	0.90729	
775.0	0.0	1.09241	0.91438	
776.0	0.0	1.0979	0.9212	
777.0	0.0	1.10449	0.92798	
778.0	0.0	1.112	0.93237	
779.0	0.0	1.12024	0.93164	
780.0	0.0	1.13013	0.93988	
781.0	0.0	1.14038	0.93988	
782.0	0.0	1.15173	0.94061	
783.0	0.0	1.16235	0.9386	
784.0	0.0	1.17389	0.93585	
785.0	0.0	1.18433	0.93512	
786.0	0.0	1.19604	0.92889	
787.0	0.0	1.20557	0.9223	
788.0	0.0	1.21729	0.91974	
789.0	0.0	1.22717	0.91241	
790.0	0.0	1.23871	0.9082	
791.0	0.0	1.24731	0.89795	
792.0	0.0	1.25647	0.88879	
793.0	0.0	1.26343	0.87689	
794.0	0.0	1.27258	0.86847	
795.0	0.0	1.27844	0.85913	
796.0	0.0	1.28613	0.85217	
797.0	0.0	1.29126	0.8443	
798.0	0.0	1.29895	0.84137	
799.0	0.0	1.30225	0.83313	
800.0	0.0	1.30811	0.82672	
801.0	0.0	1.3125	0.82233	
802.0	0.0	1.31836	0.81354	
803.0	0.0	1.32166	0.80585	
804.0	0.0	1.32605	0.80035	
805.0	0.0	1.32825	0.79138	
806.0	0.0	1.33154	0.78314	
807.0	0.0	1.33228	0.77014	
808.0	0.0	1.33374	0.75769	
809.0	0.0	1.33337	0.74176	
810.0	0.0	1.33447	0.73334	
811.0	0.0	1.33301	0.7132	
812.0	0.0	1.33337	0.69855	
813.0	0.0	1.33301	0.69159	
814.0	0.0	1.33337	0.67822	
815.0	0.0	1.33154	0.66595	
816.0	0.0	1.33008	0.65039	
817.0	0.0	1.32788	0.63812	
818.0	0.0	1.32587	0.63116	
819.0	0.0	1.32239	0.62274	
820.0	0.0	1.32056	0.61487	
821.0	0.0	1.31616	0.60278	
822.0	0.0	1.31323	0.60773	
823.0	0.0	1.30884	0.60077	
824.0	0.0	1.30554	0.59509	
825.0	0.0	1.30115	0.59546	
826.0	0.0	1.29858	0.58521	
827.0	0.0	1.29456	0.58392	
828.0	0.0	1.29309	0.57971	
829.0	0.0	1.29053	0.58626	
830.0	0.0	1.28906	0.57843	
831.0	0.0	1.28723	0.57953	
832.0	0.0	1.2854	0.58264	
833.0	0.0	1.28265	0.58374	
834.0	0.0	1.28027	0.58777	
835.0	0.0	1.27588	0.59418	
836.0	0.0	1.27258	0.5907	
837.0	0.0	1.26929	0.5929	
838.0	0.0	1.26709	0.6004	
839.0	0.0	1.26343	0.59802	
840.0	0.0	1.2605	0.60681	
841.0	0.0	1.25574	0.60388	
842.0	0.0	1.25244	0.60352	
843.0	0.0	1.24768	0.60535	
844.0	0.0	1.24292	0.61047	
845.0	0.0	1.23853	0.61102	
846.0	0.0	1.2345	0.60315	
847.0	0.0	1.22919	0.59784	
848.0	0.0	1.22498	0.59711	
849.0	0.0	1.22021	0.58502	
850.0	0.0	1.21509	0.57715	
851.0	0.0	1.2085	0.57147	
852.0	0.0	1.2019	0.56268	
853.0	0.0	1.19275	0.5625	
854.0	0.0	1.18506	0.55371	
855.0	0.0	1.17334	0.54602	
856.0	0.0	1.16309	0.54236	
857.0	0.0	1.14954	0.53394	
858.0	0.0	1.138	0.52991	
859.0	0.0	1.125	0.51855	
860.0	0.0	1.11292	0.5116	
861.0	0.0	1.1001	0.5061	
862.0	0.0	1.08765	0.49329	
863.0	0.0	1.07373	0.48926	
864.0	0.0	1.06128	0.47626	
865.0	0.0	1.04681	0.46729	
866.0	0.0	1.03455	0.45959	
867.0	0.0	1.02319	0.45538	
868.0	0.0	1.01331	0.44563	
869.0	0.0	1.00342	0.42773	
870.0	0.0	0.99371	0.41272	
871.0	0.0	0.98291	0.3999	
872.0	0.0	0.9743	0.38562	
873.0	0.0	0.96387	0.37335	
874.0	0.0	0.95544	0.36914	
875.0	0.0	0.94482	0.3501	
876.0	0.0	0.93677	0.3446	
877.0	0.0	0.92651	0.33545	
878.0	0.0	0.91864	0.32648	
879.0	0.0	0.90967	0.32172	
880.0	0.0	0.90198	0.32098	
881.0	0.0	0.89301	0.30615	
882.0	0.0	0.8855	0.29883	
883.0	0.0	0.87671	0.28986	
884.0	0.0	0.86938	0.28473	
885.0	0.0	0.86133	0.26953	
886.0	0.0	0.85547	0.26733	
887.0	0.0	0.84833	0.24481	
888.0	0.0	0.8421	0.23273	
889.0	0.0	0.83423	0.22028	
890.0	0.0	0.82727	0.20526	
891.0	0.0	0.81903	0.18713	
892.0	0.0	0.81116	0.17606	
893.0	0.0	0.80164	0.16772	
894.0	0.0	0.79193	0.14484	
895.0	0.0	0.78076	0.13257	
896.0	0.0	0.77051	0.10913	
897.0	0.0	0.75879	0.09467	
898.0	0.0	0.74634	0.08423	
899.0	0.0	0.73462	0.06079	
900.0	0.0	0.72437	0.06244	
901.0	0.0	0.71265	0.04761	
902.0	0.0	0.70276	0.03754	
903.0	0.0	0.69214	0.03076	
904.0	0.0	0.68335	0.02252	
905.0	0.0	0.67346	0.01428	
906.0	0.0	0.66467	0.00659	
907.0	0.0	0.65479	-0.0022	
908.0	0.0	0.646	-0.00549	
909.0	0.0	0.63501	-0.00842	
910.0	0.0	0.62512	-0.01263	
911.0	0.0	0.61377	-0.01941	
912.0	0.0	0.60352	-0.01208	
913.0	0.0	0.59253	-0.02179	
914.0	0.0	0.58301	-0.02325	
915.0	0.0	0.57275	-0.0282	
916.0	0.0	0.5647	-0.02783	
917.0	0.0	0.55481	-0.03104	
918.0	0.0	0.54712	-0.03223	
919.0	0.0	0.53778	-0.02142	
920.0	0.0	0.52954	-0.01868	
921.0	0.0	0.52112	-0.01501	
922.0	0.0	0.51416	-0.01721	
923.0	0.0	0.5061	-0.01776	
924.0	0.0	0.49915	-0.00568	
925.0	0.0	0.49109	-0.00861	
926.0	0.0	0.48486	-0.00861	
927.0	0.0	0.47754	-0.00403	
928.0	0.0	0.47241	-0.00165	
929.0	0.0	0.46619	-0.00146	
930.0	0.0	0.46234	-0.00293	
931.0	0.0	0.45703	0.00032	
932.0	0.0	0.45337	0.00659	
933.0	0.0	0.44861	0.00714	
934.0	0.0	0.44458	0.00613	
935.0	0.0	0.44073	0.00806	
936.0	0.0	0.4389	0.00421	
937.0	0.0	0.43689	0.00769	
938.0	0.0	0.43616	0.00476	
939.0	0.0	0.43359	0.00732	
940.0	0.0	0.43066	0.00879	
941.0	0.0	0.42554	0.01154	
942.0	0.0	0.42114	0.01703	
943.0	0.0	0.41638	0.01501	
944.0	0.0	0.41455	0.01556	
945.0	0.0	0.41309	0.0174	
946.0	0.0	0.41418	0.0163	
947.0	0.0	0.41455	0.02051	
948.0	0.0	0.41785	0.02216	
949.0	0.0	0.42151	0.02893	
950.0	0.0	0.42572	0.03223	
951.0	0.0	0.4292	0.04156	
952.0	0.0	0.43542	0.05035	
953.0	0.0	0.43964	0.05676	
954.0	0.0	0.44495	0.06647	
955.0	0.0	0.44824	0.08121	
956.0	0.0	0.4519	0.09631	
957.0	0.0	0.4541	0.11499	
958.0	0.0	0.45776	0.13202	
959.0	0.0	0.46106	0.1496	
960.0	0.0	0.46692	0.16901	
961.0	0.0	0.47168	0.18475	
962.0	0.0	0.47937	0.20325	
963.0	0.0	0.48633	0.21643	
964.0	0.0	0.49512	0.23071	
965.0	0.0	0.50427	0.24243	
966.0	0.0	0.51434	0.258	
967.0	0.0	0.52551	0.27356	
968.0	0.0	0.53796	0.28986	
969.0	0.0	0.55042	0.30469	
970.0	0.0	0.56488	0.32062	
971.0	0.0	0.57861	0.33545	
972.0	0.0	0.59509	0.35211	
973.0	0.0	0.61047	0.36877	
974.0	0.0	0.62769	0.38544	
975.0	0.0	0.64197	0.40887	
976.0	0.0	0.65698	0.4303	
977.0	0.0	0.6709	0.44852	
978.0	0.0	0.68481	0.4726	
979.0	0.0	0.69653	0.49384	
980.0	0.0	0.70972	0.51196	
981.0	0.0	0.72162	0.52734	
982.0	0.0	0.73499	0.53906	
983.0	0.0	0.7478	0.55151	
984.0	0.0	0.76245	0.56909	
985.0	0.0	0.77673	0.58173	
986.0	0.0	0.79248	0.59326	
987.0	0.0	0.80713	0.60315	
988.0	0.0	0.82324	0.61047	
989.0	0.0	0.83826	0.6167	
990.0	0.0	0.85437	0.61743	
991.0	0.0	0.86829	0.61761	
992.0	0.0	0.88257	0.61212	
993.0	0.0	0.89465	0.60791	
994.0	0.0	0.9071	0.60297	
995.0	0.0	0.91882	0.59692	
996.0	0.0	0.92981	0.59601	
997.0	0.0	0.93951	0.59253	
998.0	0.0	0.94922	0.59326	
999.0	0.0	0.95691	0.5918	
1000.0	0.0	0.96478	0.59106	
1001.0	0.0	0.96899	0.59198	
1002.0	0.0	0.97266	0.59308	
1003.0	0.0	0.97412	0.59207	
1004.0	0.0	0.97284	0.59235	
1005.0	0.0	0.96899	0.5885	
1006.0	0.0	0.96533	0.58466	
1007.0	0.0	0.95874	0.57935	
1008.0	0.0	0.95343	0.57385	
1009.0	0.0	0.94556	0.56799	
1010.0	0.0	0.9386	0.56268	
1011.0	0.0	0.93146	0.55719	
1012.0	0.0	0.92578	0.55206	
1013.0	0.0	0.92065	0.54584	
1014.0	0.0	0.91681	0.54291	
1015.0	0.0	0.91223	0.53687	
1016.0	0.0	0.90967	0.5343	
1017.0	0.0	0.90637	0.53192	
1018.0	0.0	0.90381	0.52917	
1019.0	0.0	0.90125	0.52716	
1020.0	0.0	0.90088	0.52625	
1021.0	0.0	0.90051	0.52332	
1022.0	0.0	0.90271	0.52075	
1023.0	0.0	0.90601	0.51599	
1024.0	0.0	0.90967	0.51178	
1025.0	0.0	0.91406	0.50555	
1026.0	0.0	0.92029	0.50043	
1027.0	0.0	0.92505	0.49695	
1028.0	0.0	0.93237	0.49548	
1029.0	0.0	0.93915	0.49347	
1030.0	0.0	0.94702	0.49072	
1031.0	0.0	0.95325	0.48761	
1032.0	0.0	0.96002	0.4866	
1033.0	0.0	0.96387	0.48798	
1034.0	0.0	0.96936	0.48395	
1035.0	0.0	0.97192	0.48413	
1036.0	0.0	0.97485	0.48486	
1037.0	0.0	0.97485	0.48578	
1038.0	0.0	0.97632	0.48889	
1039.0	0.0	0.97668	0.48395	
1040.0	0.0	0.97852	0.48431	
1041.0	0.0	0.97852	0.48074	
1042.0	0.0	0.97925	0.47845	
1043.0	0.0	0.97925	0.47589	
1044.0	0.0	0.98035	0.47589	
1045.0	0.0	0.98108	0.47717	
1046.0	0.0	0.9809	0.48079	
1047.0	0.0	0.97925	0.4812	
1048.0	0.0	0.97723	0.47864	
1049.0	0.0	0.97412	0.47809	
1050.0	0.0	0.97046	0.47644	
1051.0	0.0	0.96606	0.47498	
1052.0	0.0	0.96167	0.47699	
1053.0	0.0	0.95654	0.47424	
1054.0	0.0	0.95361	0.47488	
1055.0	0.0	0.94958	0.47369	
1056.0	0.0	0.94666	0.47571	
1057.0	0.0	0.94336	0.47681	
1058.0	0.0	0.94043	0.47534	
1059.0	0.0	0.93677	0.47424	
1060.0	0.0	0.93402	0.47424	
1061.0	0.0	0.93018	0.47388	
1062.0	0.0	0.92816	0.47113	
1063.0	0.0	0.9245	0.47058	
1064.0	0.0	0.92267	0.47021	
1065.0	0.0	0.91846	0.47131	
1066.0	0.0	0.91626	0.46674	
1067.0	0.0	0.91205	0.46381	
1068.0	0.0	0.90894	0.46317	
1069.0	0.0	0.90454	0.46069	
1070.0	0.0	0.90271	0.4585	
1071.0	0.0	0.89868	0.46069	
1072.0	0.0	0.89685	0.45905	
1073.0	0.0	0.89246	0.4585	
1074.0	0.0	0.89026	0.45776	
1075.0	0.0	0.88623	0.45593	
1076.0	0.0	0.8833	0.45337	
1077.0	0.0	0.87927	0.45209	
1078.0	0.0	0.87708	0.45154	
1079.0	0.0	0.87305	0.44641	
1080.0	0.0	0.87067	0.4444	
1081.0	0.0	0.86755	0.44165	
1082.0	0.0	0.86646	0.44257	
1083.0	0.0	0.86389	0.43762	
1084.0	0.0	0.86279	0.43469	
1085.0	0.0	0.86133	0.43396	
1086.0	0.0	0.86005	0.42883	
1087.0	0.0	0.85767	0.42114	
1088.0	0.0	0.8562	0.41968	
1089.0	0.0	0.85364	0.41455	
1090.0	0.0	0.85107	0.41089	
1091.0	0.0	0.84814	0.40906	
1092.0	0.0	0.84705	0.39972	
1093.0	0.0	0.84412	0.39569	
1094.0	0.0	0.84229	0.38489	
1095.0	0.0	0.83752	0.38269	
1096.0	0.0	0.83276	0.3728	
1097.0	0.0	0.8269	0.36877	
1098.0	0.0	0.82104	0.36786	
1099.0	0.0	0.81482	0.35742	
1100.0	0.0	0.80951	0.35504	
1101.0	0.0	0.8053	0.349	
1102.0	0.0	0.80328	0.34662	
1103.0	0.0	0.80054	0.34094	
1104.0	0.0	0.79688	0.32996	
1105.0	0.0	0.79285	0.32172	
1106.0	0.0	0.79047	0.3175	
1107.0	0.0	0.78589	0.3111	
1108.0	0.0	0.78333	0.30753	
1109.0	0.0	0.78003	0.30157	
1110.0	0.0	0.77783	0.29663	
1111.0	0.0	0.77454	0.29462	
1112.0	0.0	0.77161	0.28912	
1113.0	0.0	0.76721	0.28491	
1114.0	0.0	0.76465	0.28052	
1115.0	0.0	0.75952	0.27832	
1116.0	0.0	0.75458	0.27539	
1117.0	0.0	0.74854	0.26706	
1118.0	0.0	0.74341	0.26294	
1119.0	0.0	0.73773	0.25488	
1120.0	0.0	0.73352	0.245	
1121.0	0.0	0.72729	0.2347	
1122.0	0.0	0.7229	0.2265	
1123.0	0.0	0.71667	0.21881	
1124.0	0.0	0.71191	0.2146	
1125.0	0.0	0.70496	0.19995	
1126.0	0.0	0.69781	0.19427	
1127.0	0.0	0.68884	0.18549	
1128.0	0.0	0.6795	0.16846	
1129.0	0.0	0.6687	0.16113	
1130.0	0.0	0.65771	0.14941	
1131.0	0.0	0.6449	0.14447	
1132.0	0.0	0.63354	0.12653	
1133.0	0.0	0.62128	0.117	
1134.0	0.0	0.61011	0.10767	
1135.0	0.0	0.59766	0.09705	
1136.0	0.0	0.58685	0.08643	
1137.0	0.0	0.57458	0.0835	
1138.0	0.0	0.56488	0.06958	
1139.0	0.0	0.55371	0.05603	
1140.0	0.0	0.54492	0.04834	
1141.0	0.0	0.53412	0.03314	
1142.0	0.0	0.52533	0.02637	
1143.0	0.0	0.51453	0.0152	
1144.0	0.0	0.50427	0.00714	
1145.0	0.0	0.49219	-0.00925	
1146.0	0.0	0.48047	-0.01501	
1147.0	0.0	0.46729	-0.0282	
1148.0	0.0	0.4552	-0.03333	
1149.0	0.0	0.44202	-0.04431	
1150.0	0.0	0.42957	-0.05585	
1151.0	0.0	0.41821	-0.06042	
1152.0	0.0	0.40759	-0.07599	
1153.0	0.0	0.39587	-0.08423	
1154.0	0.0	0.38562	-0.0954	
1155.0	0.0	0.37518	-0.10364	
1156.0	0.0	0.36548	-0.11536	
1157.0	0.0	0.35394	-0.12396	
1158.0	0.0	0.34497	-0.1333	
1159.0	0.0	0.33435	-0.1377	
1160.0	0.0	0.32446	-0.1507	
1161.0	0.0	0.31384	-0.15948	
1162.0	0.0	0.30542	-0.16168	
1163.0	0.0	0.29443	-0.16608	
1164.0	0.0	0.28583	-0.17871	
1165.0	0.0	0.27576	-0.18604	
1166.0	0.0	0.26752	-0.1842	
1167.0	0.0	0.25781	-0.19061	
1168.0	0.0	0.24902	-0.19592	
1169.0	0.0	0.24023	-0.20636	
1170.0	0.0	0.23199	-0.20654	
1171.0	0.0	0.22302	-0.21405	
1172.0	0.0	0.21643	-0.2157	
1173.0	0.0	0.20801	-0.22083	
1174.0	0.0	0.2016	-0.23035	
1175.0	0.0	0.19391	-0.22998	
1176.0	0.0	0.1875	-0.23419	
1177.0	0.0	0.17981	-0.23694	
1178.0	0.0	0.17358	-0.23639	
1179.0	0.0	0.16626	-0.23492	
1180.0	0.0	0.1604	-0.23145	
1181.0	0.0	0.15454	-0.23602	
1182.0	0.0	0.15198	-0.23987	
1183.0	0.0	0.14813	-0.24188	
1184.0	0.0	0.14594	-0.24646	
1185.0	0.0	0.14209	-0.25012	
1186.0	0.0	0.13971	-0.24921	
1187.0	0.0	0.13678	-0.24751	
1188.0	0.0	0.13513	-0.25159	
1189.0	0.0	0.1333	-0.2525	
1190.0	0.0	0.13275	-0.25269	
1191.0	0.0	0.1322	-0.2514	
1192.0	0.0	0.13275	-0.25598	
1193.0	0.0	0.13184	-0.2558	
1194.0	0.0	0.13184	-0.24921	
1195.0	0.0	0.13037	-0.25232	
1196.0	0.0	0.12964	-0.24994	
1197.0	0.0	0.12817	-0.24683	
1198.0	0.0	0.12854	-0.24481	
1199.0	0.0	0.12799	-0.24152	
1200.0	0.0	0.12964	-0.23785	
1201.0	0.0	0.12891	-0.23996	
1202.0	0.0	0.1311	-0.24188	
1203.0	0.0	0.13184	-0.24316	
1204.0	0.0	0.13403	-0.24316	
1205.0	0.0	0.13477	-0.24316	
1206.0	0.0	0.13733	-0.24133	
1207.0	0.0	0.13696	-0.24115	
1208.0	0.0	0.13806	-0.23804	
1209.0	0.0	0.13733	-0.23676	
1210.0	0.0	0.13733	-0.23566	
1211.0	0.0	0.1355	-0.2309	
1212.0	0.0	0.13495	-0.2276	
1213.0	0.0	0.13367	-0.22375	
1214.0	0.0	0.13312	-0.22009	
1215.0	0.0	0.1322	-0.21405	
1216.0	0.0	0.13367	-0.20947	
1217.0	0.0	0.13348	-0.2059	
1218.0	0.0	0.13623	-0.20343	
1219.0	0.0	0.1377	-0.19592	
1220.0	0.0	0.14026	-0.18988	
1221.0	0.0	0.14172	-0.18311	
1222.0	0.0	0.14447	-0.17825	
1223.0	0.0	0.14502	-0.1712	
1224.0	0.0	0.14612	-0.16315	
1225.0	0.0	0.14648	-0.15674	
1226.0	0.0	0.14758	-0.1507	
1227.0	0.0	0.14758	-0.14648	
1228.0	0.0	0.14978	-0.14246	
1229.0	0.0	0.15088	-0.13751	
1230.0	0.0	0.15399	-0.13458	
1231.0	0.0	0.15619	-0.13092	
1232.0	0.0	0.16022	-0.12561	
1233.0	0.0	0.16333	-0.12231	
1234.0	0.0	0.16809	-0.11957	
1235.0	0.0	0.17139	-0.11646	
1236.0	0.0	0.17651	-0.11389	
1237.0	0.0	0.18073	-0.1106	
1238.0	0.0	0.18567	-0.10785	
1239.0	0.0	0.19006	-0.10345	
1240.0	0.0	0.19592	-0.10208	
1241.0	0.0	0.19995	-0.09851	
1242.0	0.0	0.20508	-0.0965	
1243.0	0.0	0.20984	-0.09448	
1244.0	0.0	0.2146	-0.09064	
1245.0	0.0	0.21936	-0.09027	
1246.0	0.0	0.22522	-0.08606	
1247.0	0.0	0.23016	-0.0835	
1248.0	0.0	0.23621	-0.07993	
1249.0	0.0	0.24207	-0.07727	
1250.0	0.0	0.24976	-0.07379	
1251.0	0.0	0.25671	-0.07132	
1252.0	0.0	0.26605	-0.06876	
1253.0	0.0	0.27594	-0.06793	
1254.0	0.0	0.28674	-0.06573	
1255.0	0.0	0.297	-0.06281	
1256.0	0.0	0.30872	-0.05804	
1257.0	0.0	0.31915	-0.05182	
1258.0	0.0	0.33051	-0.05072	
1259.0	0.0	0.34058	-0.04395	
1260.0	0.0	0.35303	-0.03955	
1261.0	0.0	0.36584	-0.03543	
1262.0	0.0	0.38086	-0.03149	
1263.0	0.0	0.39496	-0.0293	
1264.0	0.0	0.41016	-0.02875	
1265.0	0.0	0.42407	-0.02618	
1266.0	0.0	0.43945	-0.02509	
1267.0	0.0	0.45447	-0.02563	
1268.0	0.0	0.46985	-0.02161	
1269.0	0.0	0.48468	-0.0141	
1270.0	0.0	0.50098	-0.01666	
1271.0	0.0	0.51489	-0.01062	
1272.0	0.0	0.53027	-0.0033	
1273.0	0.0	0.54309	-0.00092	
1274.0	0.0	0.55737	0.00293	
1275.0	0.0	0.56946	0.00677	
1276.0	0.0	0.58154	0.01135	
1277.0	0.0	0.59363	0.02014	
1278.0	0.0	0.60498	0.02087	
1279.0	0.0	0.61597	0.02655	
1280.0	0.0	0.62659	0.02692	
1281.0	0.0	0.63647	0.03168	
1282.0	0.0	0.64673	0.03204	
1283.0	0.0	0.65515	0.03992	
1284.0	0.0	0.66504	0.03186	
1285.0	0.0	0.67328	0.03406	
1286.0	0.0	0.68152	0.04074	
1287.0	0.0	0.68738	0.04028	
1288.0	0.0	0.6936	0.04715	
1289.0	0.0	0.69763	0.04852	
1290.0	0.0	0.70166	0.05621	
1291.0	0.0	0.70422	0.06024	
1292.0	0.0	0.70679	0.06409	
1293.0	0.0	0.70917	0.06281	
1294.0	0.0	0.71265	0.06628	
1295.0	0.0	0.71338	0.06738	
1296.0	0.0	0.71631	0.08331	
1297.0	0.0	0.71814	0.08167	
1298.0	0.0	0.7207	0.0791	
1299.0	0.0	0.72363	0.08112	
1300.0	0.0	0.72766	0.08423	
1301.0	0.0	0.73004	0.08551	
1302.0	0.0	0.73389	0.08752	
1303.0	0.0	0.73682	0.09375	
1304.0	0.0	0.73975	0.09407	
1305.0	0.0	0.74084	0.10529	
1306.0	0.0	0.74286	0.10071	
1307.0	0.0	0.74268	0.10162	
1308.0	0.0	0.74451	0.10199	
1309.0	0.0	0.74487	0.10419	
1310.0	0.0	0.74634	0.1062	
1311.0	0.0	0.74744	0.10748	
1312.0	0.0	0.74963	0.11554	
1313.0	0.0	0.75146	0.1095	
1314.0	0.0	0.75403	0.1214	
1315.0	0.0	0.75439	0.11664	
1316.0	0.0	0.75677	0.11751	
1317.0	0.0	0.75769	0.11353	
1318.0	0.0	0.76062	0.11902	
1319.0	0.0	0.76117	0.12158	
1320.0	0.0	0.76245	0.11572	
1321.0	0.0	0.76337	0.12469	
1322.0	0.0	0.7641	0.11407	
1323.0	0.0	0.7641	0.12286	
1324.0	0.0	0.76538	0.11417	
1325.0	0.0	0.76483	0.11554	
1326.0	0.0	0.76611	0.11426	
1327.0	0.0	0.76648	0.11444	
1328.0	0.0	0.76648	0.11481	
1329.0	0.0	0.76593	0.11536	
1330.0	0.0	0.76721	0.10968	
1331.0	0.0	0.76611	0.11371	
1332.0	0.0	0.76648	0.11243	
1333.0	0.0	0.7663	0.10638	
1334.0	0.0	0.76575	0.11188	
1335.0	0.0	0.76575	0.10547	
1336.0	0.0	0.76611	0.10968	
1337.0	0.0	0.76538	0.10474	
1338.0	0.0	0.76501	0.11023	
1339.0	0.0	0.76318	0.10913	
1340.0	0.0	0.76245	0.10822	
1341.0	0.0	0.76172	0.10419	
1342.0	0.0	0.7619	0.10922	
1343.0	0.0	0.76392	0.10657	
1344.0	0.0	0.76758	0.1062	
1345.0	0.0	0.77051	0.09732	
1346.0	0.0	0.7738	0.09009	
1347.0	0.0	0.77637	0.08936	
1348.0	0.0	0.77966	0.08899	
1349.0	0.0	0.78186	0.07562	
1350.0	0.0	0.78442	0.07123	
1351.0	0.0	0.78516	0.0672	
1352.0	0.0	0.78516	0.07507	
1353.0	0.0	0.78552	0.07196	
1354.0	0.0	0.78662	0.08112	
1355.0	0.0	0.78882	0.07068	
1356.0	0.0	0.79321	0.07599	
1357.0	0.0	0.79834	0.0899	
1358.0	0.0	0.80365	0.10162	
1359.0	0.0	0.8075	0.10474	
1360.0	0.0	0.80969	0.11298	
1361.0	0.0	0.80713	0.12744	
1362.0	0.0	0.80255	0.12451	
1363.0	0.0	0.79431	0.13239	
1364.0	0.0	0.78607	0.1452	
1365.0	0.0	0.77765	0.15088	
1366.0	0.0	0.77234	0.16498	
1367.0	0.0	0.76904	0.17798	
1368.0	0.0	0.76758	0.18942	
1369.0	0.0	0.76556	0.20032	
1370.0	0.0	0.7663	0.20911	
1371.0	0.0	0.76538	0.21533	
1372.0	0.0	0.76575	0.2179	
1373.0	0.0	0.76282	0.22174	
1374.0	0.0	0.76062	0.22852	
1375.0	0.0	0.75586	0.24188	
1376.0	0.0	0.7511	0.24243	
1377.0	0.0	0.74414	0.25177	
1378.0	0.0	0.73828	0.26111	
1379.0	0.0	0.73206	0.26331	
1380.0	0.0	0.72693	0.26935	
1381.0	0.0	0.72217	0.26788	
1382.0	0.0	0.7207	0.2699	
1383.0	0.0	0.71906	0.27338	
1384.0	0.0	0.7196	0.27759	
1385.0	0.0	0.71906	0.28381	
1386.0	0.0	0.71851	0.29004	
1387.0	0.0	0.71631	0.30011	
1388.0	0.0	0.71521	0.3089	
1389.0	0.0	0.71118	0.31384	
1390.0	0.0	0.7088	0.3186	
1391.0	0.0	0.70441	0.3208	
1392.0	0.0	0.70111	0.3219	
1393.0	0.0	0.69727	0.31979	
1394.0	0.0	0.69745	0.31769	
1395.0	0.0	0.69653	0.30908	
1396.0	0.0	0.69946	0.30322	
1397.0	0.0	0.70129	0.29498	
1398.0	0.0	0.70642	0.28583	
1399.0	0.0	0.71045	0.27631	
1400.0	0.0	0.71576	0.26294	
1401.0	0.0	0.71887	0.25031	
1402.0	0.0	0.724	0.23438	
1403.0	0.0	0.72729	0.22028	
1404.0	0.0	0.73206	0.20526	
1405.0	0.0	0.73389	0.19043	
1406.0	0.0	0.73645	0.18567	
1407.0	0.0	0.73535	0.17322	
1408.0	0.0	0.73389	0.15765	
1409.0	0.0	0.72949	0.1496	
1410.0	0.0	0.72363	0.1452	
1411.0	0.0	0.71558	0.13953	
1412.0	0.0	0.70825	0.14172	
1413.0	0.0	0.6991	0.12946	
1414.0	0.0	0.69177	0.12268	
1415.0	0.0	0.68445	0.12323	
1416.0	0.0	0.68079	0.11133	
1417.0	0.0	0.67456	0.10767	
1418.0	0.0	0.67053	0.09045	
1419.0	0.0	0.66431	0.0813	
1420.0	0.0	0.65771	0.07617	
1421.0	0.0	0.64929	0.05603	
1422.0	0.0	0.6416	0.05255	
1423.0	0.0	0.63245	0.03589	
1424.0	0.0	0.62567	0.02655	
1425.0	0.0	0.61816	0.01831	
1426.0	0.0	0.61267	0.00513	
1427.0	0.0	0.60461	-0.00696	
1428.0	0.0	0.59839	-0.01154	
1429.0	0.0	0.59052	-0.02051	
1430.0	0.0	0.58374	-0.02948	
1431.0	0.0	0.57587	-0.03625	
1432.0	0.0	0.57129	-0.04706	
1433.0	0.0	0.56506	-0.04486	
1434.0	0.0	0.56232	-0.06299	
1435.0	0.0	0.55792	-0.06738	
1436.0	0.0	0.55664	-0.06839	
1437.0	0.0	0.55481	-0.07617	
1438.0	0.0	0.55463	-0.08459	
1439.0	0.0	0.55518	-0.08286	
1440.0	0.0	0.55701	-0.08826	
1441.0	0.0	0.55847	-0.10419	
1442.0	0.0	0.56177	-0.11096	
1443.0	0.0	0.56342	-0.13019	
1444.0	0.0	0.56488	-0.13559	
1445.0	0.0	0.56396	-0.15921	
1446.0	0.0	0.56177	-0.16663	
1447.0	0.0	0.55664	-0.17258	
1448.0	0.0	0.55078	-0.17889	
1449.0	0.0	0.54089	-0.18192	
1450.0	0.0	0.53137	-0.1886	
1451.0	0.0	0.51874	-0.19244	
1452.0	0.0	0.50757	-0.18585	
1453.0	0.0	0.49457	-0.18842	
1454.0	0.0	0.4834	-0.19299	
1455.0	0.0	0.46985	-0.19208	
1456.0	0.0	0.45923	-0.19464	
1457.0	0.0	0.44714	-0.18301	
1458.0	0.0	0.43689	-0.19244	
1459.0	0.0	0.42554	-0.18915	
1460.0	0.0	0.41638	-0.18375	
1461.0	0.0	0.40613	-0.18347	
1462.0	0.0	0.39697	-0.18237	
1463.0	0.0	0.38672	-0.18604	
1464.0	0.0	0.37811	-0.18146	
1465.0	0.0	0.36823	-0.17084	
1466.0	0.0	0.35962	-0.17468	
1467.0	0.0	0.349	-0.17047	
1468.0	0.0	0.34039	-0.16553	
1469.0	0.0	0.33051	-0.15289	
1470.0	0.0	0.32098	-0.15015	
1471.0	0.0	0.31238	-0.1463	
1472.0	0.0	0.30542	-0.13531	
1473.0	0.0	0.29919	-0.13696	
1474.0	0.0	0.297	-0.13019	
1475.0	0.0	0.2959	-0.12469	
1476.0	0.0	0.29663	-0.12268	
1477.0	0.0	0.29608	-0.12277	
1478.0	0.0	0.29718	-0.1214	
1479.0	0.0	0.29443	-0.11353	
1480.0	0.0	0.29224	-0.11426	
1481.0	0.0	0.28711	-0.10913	
1482.0	0.0	0.28198	-0.10638	
1483.0	0.0	0.27576	-0.10309	
1484.0	0.0	0.27026	-0.09979	
1485.0	0.0	0.2655	-0.09393	
1486.0	0.0	0.26093	-0.08853	
1487.0	0.0	0.25708	-0.0835	
1488.0	0.0	0.25525	-0.08075	
1489.0	0.0	0.25269	-0.07452	
1490.0	0.0	0.25195	-0.07178	
1491.0	0.0	0.24994	-0.0661	
1492.0	0.0	0.25012	-0.06006	
1493.0	0.0	0.24792	-0.0553	
1494.0	0.0	0.24609	-0.04889	
1495.0	0.0	0.2428	-0.04468	
1496.0	0.0	0.24023	-0.03809	
1497.0	0.0	0.23584	-0.03442	
1498.0	0.0	0.23438	-0.0304	
1499.0	0.0	0.23328	-0.02399	
1500.0	0.0	0.23676	-0.01886	
1501.0	0.0	0.24042	-0.01575	
1502.0	0.0	0.24609	-0.01172	
1503.0	0.0	0.25021	-0.01025	
1504.0	0.0	0.2569	-0.00861	
1505.0	0.0	0.26147	-0.00476	
1506.0	0.0	0.26733	-0.00055	
1507.0	0.0	0.27173	0.00201	
1508.0	0.0	0.27722	0.00494	
1509.0	0.0	0.28235	0.00732	
1510.0	0.0	0.28876	0.01071	
1511.0	0.0	0.29407	0.01135	
1512.0	0.0	0.30157	0.01538	
1513.0	0.0	0.30688	0.01794	
1514.0	0.0	0.31201	0.01868	
1515.0	0.0	0.31604	0.02124	
1516.0	0.0	0.32117	0.02289	
1517.0	0.0	0.32483	0.02344	
1518.0	0.0	0.32812	0.02545	
1519.0	0.0	0.32959	0.02161	
1520.0	0.0	0.33325	0.01813	
1521.0	0.0	0.33417	0.01703	
1522.0	0.0	0.33618	0.01575	
1523.0	0.0	0.33691	0.01428	
1524.0	0.0	0.33948	0.01648	
1525.0	0.0	0.33929	0.01813	
1526.0	0.0	0.34076	0.02014	
1527.0	0.0	0.34003	0.02142	
1528.0	0.0	0.33984	0.02069	
1529.0	0.0	0.33746	0.02271	
1530.0	0.0	0.33508	0.0244	
1531.0	0.0	0.33069	0.02362	
1532.0	0.0	0.32776	0.02362	
1533.0	0.0	0.32263	0.02252	
1534.0	0.0	0.32025	0.02161	
1535.0	0.0	0.31604	0.01794	
1536.0	0.0	0.31567	0.0141	
1537.0	0.0	0.31366	0.01007	
1538.0	0.0	0.31421	0.00568	
1539.0	0.0	0.31421	0.00165	
1540.0	0.0	0.31458	-0.00201	
1541.0	0.0	0.31439	-0.00641	
1542.0	0.0	0.31311	-0.00861	
1543.0	0.0	0.31128	-0.01355	
1544.0	0.0	0.30908	-0.01538	
1545.0	0.0	0.30487	-0.02179	
1546.0	0.0	0.30267	-0.0249	
1547.0	0.0	0.29919	-0.02856	
1548.0	0.0	0.297	-0.03131	
1549.0	0.0	0.29443	-0.03259	
1550.0	0.0	0.2926	-0.03461	
1551.0	0.0	0.28967	-0.03607	
1552.0	0.0	0.28839	-0.03717	
1553.0	0.0	0.28638	-0.03882	
1554.0	0.0	0.28528	-0.03973	
1555.0	0.0	0.28345	-0.03992	
1556.0	0.0	0.28271	-0.04175	
1557.0	0.0	0.28143	-0.04083	
1558.0	0.0	0.28198	-0.04028	
1559.0	0.0	0.28198	-0.04047	
1560.0	0.0	0.28381	-0.03644	
1561.0	0.0	0.28455	-0.03864	
1562.0	0.0	0.28748	-0.03479	
1563.0	0.0	0.28931	-0.03406	
1564.0	0.0	0.29297	-0.03149	
1565.0	0.0	0.29517	-0.0304	
1566.0	0.0	0.29883	-0.02728	
1567.0	0.0	0.30103	-0.02637	
1568.0	0.0	0.30396	-0.02454	
1569.0	0.0	0.30579	-0.02179	
1570.0	0.0	0.30908	-0.01959	
1571.0	0.0	0.31146	-0.01758	
1572.0	0.0	0.31604	-0.0152	
1573.0	0.0	0.32172	-0.01556	
1574.0	0.0	0.3316	-0.0108	
1575.0	0.0	0.34131	-0.00952	
1576.0	0.0	0.35211	-0.01025	
1577.0	0.0	0.36365	-0.01062	
1578.0	0.0	0.37573	-0.01007	
1579.0	0.0	0.38782	-0.00623	
1580.0	0.0	0.401	-0.00751	
1581.0	0.0	0.41418	-0.00238	
1582.0	0.0	0.42792	-0.0033	
1583.0	0.0	0.44147	-0.00037	
1584.0	0.0	0.45575	0.00073	
1585.0	0.0	0.46857	0.00403	
1586.0	0.0	0.48175	0.01465	
1587.0	0.0	0.49365	0.01199	
1588.0	0.0	0.50647	0.02216	
1589.0	0.0	0.51727	0.02234	
1590.0	0.0	0.52954	0.02362	
1591.0	0.0	0.54034	0.03149	
1592.0	0.0	0.55225	0.03113	
1593.0	0.0	0.5636	0.03149	
1594.0	0.0	0.57532	0.03223	
1595.0	0.0	0.58484	0.03589	
1596.0	0.0	0.59601	0.04083	
1597.0	0.0	0.60608	0.04285	
1598.0	0.0	0.61597	0.04559	
1599.0	0.0	0.62402	0.05237	
1600.0	0.0	0.63245	0.05621	
1601.0	0.0	0.63831	0.06335	
1602.0	0.0	0.64417	0.06354	
1603.0	0.0	0.64746	0.06793	
1604.0	0.0	0.65259	0.06738	
1605.0	0.0	0.65588	0.07462	
1606.0	0.0	0.66064	0.07489	
1607.0	0.0	0.66376	0.08881	
1608.0	0.0	0.6687	0.08826	
1609.0	0.0	0.67273	0.09521	
1610.0	0.0	0.67932	0.09174	
1611.0	0.0	0.68481	0.09943	
1612.0	0.0	0.69177	0.09888	
1613.0	0.0	0.69727	0.09998	
1614.0	0.0	0.70331	0.09686	
1615.0	0.0	0.70752	0.09943	
1616.0	0.0	0.71191	0.09796	
1617.0	0.0	0.71411	0.10071	
1618.0	0.0	0.71667	0.10455	
1619.0	0.0	0.71796	0.10913	
1620.0	0.0	0.71997	0.11847	
1621.0	0.0	0.7207	0.10822	
1622.0	0.0	0.72253	0.11499	
1623.0	0.0	0.72437	0.11426	
1624.0	0.0	0.72748	0.11719	
1625.0	0.0	0.72876	0.12598	
1626.0	0.0	0.73206	0.1214	
1627.0	0.0	0.73315	0.12415	
1628.0	0.0	0.73608	0.13184	
1629.0	0.0	0.73755	0.12598	
1630.0	0.0	0.74011	0.12836	
1631.0	0.0	0.74084	0.1366	
1632.0	0.0	0.74268	0.13312	
1633.0	0.0	0.74432	0.13861	
1634.0	0.0	0.74634	0.14095	
1635.0	0.0	0.74799	0.13403	
1636.0	0.0	0.75073	0.1452	
1637.0	0.0	0.75293	0.13531	
1638.0	0.0	0.75549	0.14209	
1639.0	0.0	0.75696	0.14081	
1640.0	0.0	0.75952	0.14868	
1641.0	0.0	0.76099	0.15234	
1642.0	0.0	0.76227	0.15527	
1643.0	0.0	0.76245	0.15527	
1644.0	0.0	0.76465	0.1604	
1645.0	0.0	0.76428	0.16095	
1646.0	0.0	0.76721	0.15601	
1647.0	0.0	0.76978	0.15948	
1648.0	0.0	0.77417	0.16113	
1649.0	0.0	0.77966	0.1701	
1650.0	0.0	0.78552	0.16406	
1651.0	0.0	0.78918	0.16736	
1652.0	0.0	0.79468	0.16113	
1653.0	0.0	0.79834	0.1582	
1654.0	0.0	0.80347	0.15848	
1655.0	0.0	0.80676	0.16058	
1656.0	0.0	0.81152	0.16113	
1657.0	0.0	0.81555	0.16132	
1658.0	0.0	0.82086	0.16003	
1659.0	0.0	0.82507	0.16754	
1660.0	0.0	0.83002	0.17377	
1661.0	0.0	0.8335	0.18018	
1662.0	0.0	0.83752	0.17395	
1663.0	0.0	0.83972	0.17542	
1664.0	0.0	0.84229	0.1756	
1665.0	0.0	0.84393	0.18256	
1666.0	0.0	0.84705	0.17688	
1667.0	0.0	0.84833	0.1853	
1668.0	0.0	0.85181	0.18782	
1669.0	0.0	0.85364	0.18613	
1670.0	0.0	0.8573	0.18842	
1671.0	0.0	0.85986	0.18658	
1672.0	0.0	0.86243	0.18475	
1673.0	0.0	0.86426	0.19043	
1674.0	0.0	0.86499	0.19373	
1675.0	0.0	0.86572	0.18896	
1676.0	0.0	0.86426	0.20178	
1677.0	0.0	0.86279	0.19922	
1678.0	0.0	0.86206	0.19885	
1679.0	0.0	0.8595	0.20361	
1680.0	0.0	0.85876	0.20288	
1681.0	0.0	0.8573	0.20947	
1682.0	0.0	0.85657	0.21213	
1683.0	0.0	0.85474	0.21387	
1684.0	0.0	0.854	0.21698	
1685.0	0.0	0.85327	0.21515	
1686.0	0.0	0.854	0.2168	
1687.0	0.0	0.85382	0.21973	
1688.0	0.0	0.85602	0.22357	
1689.0	0.0	0.85693	0.21423	
1690.0	0.0	0.85913	0.21844	
1691.0	0.0	0.85913	0.22668	
1692.0	0.0	0.85913	0.21533	
1693.0	0.0	0.85767	0.21899	
1694.0	0.0	0.8584	0.21387	
1695.0	0.0	0.85675	0.21387	
1696.0	0.0	0.85693	0.21259	
1697.0	0.0	0.85437	0.20892	
1698.0	0.0	0.85437	0.20453	
1699.0	0.0	0.85254	0.21039	
1700.0	0.0	0.85144	0.20673	
1701.0	0.0	0.85052	0.19739	
1702.0	0.0	0.84961	0.1897	
1703.0	0.0	0.84814	0.18951	
1704.0	0.0	0.84741	0.18549	
1705.0	0.0	0.84613	0.18915	
1706.0	0.0	0.84375	0.17578	
1707.0	0.0	0.84082	0.17322	
1708.0	0.0	0.83826	0.17139	
1709.0	0.0	0.8335	0.16132	
1710.0	0.0	0.83057	0.16187	
1711.0	0.0	0.82544	0.1637	
1712.0	0.0	0.82141	0.15125	
1713.0	0.0	0.81683	0.15381	
1714.0	0.0	0.81244	0.14941	
1715.0	0.0	0.80786	0.15564	
1716.0	0.0	0.80365	0.14722	
1717.0	0.0	0.79761	0.14337	
1718.0	0.0	0.79211	0.13934	
1719.0	0.0	0.78644	0.15088	
1720.0	0.0	0.7804	0.14978	
1721.0	0.0	0.77362	0.14154	
1722.0	0.0	0.76758	0.14246	
1723.0	0.0	0.76172	0.14008	
1724.0	0.0	0.75769	0.15326	
1725.0	0.0	0.75586	0.14722	
1726.0	0.0	0.75659	0.14703	
1727.0	0.0	0.75623	0.15363	
1728.0	0.0	0.75659	0.14868	
1729.0	0.0	0.75659	0.14575	
1730.0	0.0	0.75732	0.15179	
1731.0	0.0	0.75732	0.14227	
1732.0	0.0	0.75732	0.14996	
1733.0	0.0	0.75659	0.13806	
1734.0	0.0	0.75769	0.14081	
1735.0	0.0	0.75714	0.14996	
1736.0	0.0	0.75732	0.14484	
1737.0	0.0	0.75696	0.15051	
1738.0	0.0	0.75659	0.15253	
1739.0	0.0	0.75458	0.14923	
1740.0	0.0	0.7533	0.14484	
1741.0	0.0	0.75	0.13824	
1742.0	0.0	0.7478	0.13422	
1743.0	0.0	0.74524	0.12799	
1744.0	0.0	0.74396	0.11609	
1745.0	0.0	0.74158	0.10675	
1746.0	0.0	0.74084	0.09998	
1747.0	0.0	0.73975	0.09247	
1748.0	0.0	0.73755	0.08698	
1749.0	0.0	0.73535	0.08423	
1750.0	0.0	0.73315	0.06738	
1751.0	0.0	0.72729	0.05292	
1752.0	0.0	0.72217	0.05786	
1753.0	0.0	0.71484	0.04065	
1754.0	0.0	0.70734	0.02911	
1755.0	0.0	0.69836	0.02618	
1756.0	0.0	0.69067	0.00714	
1757.0	0.0	0.68188	-0.00018	
1758.0	0.0	0.67383	-0.00146	
1759.0	0.0	0.66504	-0.01794	
1760.0	0.0	0.65717	-0.02783	
1761.0	0.0	0.64819	-0.03259	
1762.0	0.0	0.6405	-0.03882	
1763.0	0.0	0.63281	-0.0412	
1764.0	0.0	0.62585	-0.0542	
1765.0	0.0	0.61743	-0.06427	
1766.0	0.0	0.60992	-0.05951	
1767.0	0.0	0.60059	-0.06702	
1768.0	0.0	0.59125	-0.0726	
1769.0	0.0	0.58081	-0.06958	
1770.0	0.0	0.57074	-0.07343	
1771.0	0.0	0.5592	-0.07416	
1772.0	0.0	0.54858	-0.07379	
1773.0	0.0	0.53705	-0.07617	
1774.0	0.0	0.52698	-0.07983	
1775.0	0.0	0.51636	-0.07965	
1776.0	0.0	0.50684	-0.07654	
1777.0	0.0	0.4975	-0.07196	
1778.0	0.0	0.48853	-0.07764	
1779.0	0.0	0.47974	-0.07727	
1780.0	0.0	0.47113	-0.07864	
1781.0	0.0	0.46252	-0.08057	
1782.0	0.0	0.45557	-0.08551	
1783.0	0.0	0.44751	-0.08459	
1784.0	0.0	0.43945	-0.08057	
1785.0	0.0	0.4325	-0.09064	
1786.0	0.0	0.42554	-0.09137	
1787.0	0.0	0.4184	-0.09229	
1788.0	0.0	0.41272	-0.09503	
1789.0	0.0	0.40649	-0.104	
1790.0	0.0	0.4021	-0.09979	
1791.0	0.0	0.39624	-0.10547	
1792.0	0.0	0.39258	-0.11023	
1793.0	0.0	0.38782	-0.10634	
1794.0	0.0	0.38489	-0.11462	
1795.0	0.0	0.38086	-0.11957	
1796.0	0.0	0.37866	-0.11829	
1797.0	0.0	0.375	-0.12341	
1798.0	0.0	0.37134	-0.12579	
1799.0	0.0	0.36731	-0.12593	
1800.0	0.0	0.36475	-0.13211	
1801.0	0.0	0.36182	-0.13239	
1802.0	0.0	0.36163	-0.13147	
1803.0	0.0	0.36255	-0.13165	
1804.0	0.0	0.36475	-0.14209	
1805.0	0.0	0.36475	-0.14447	
1806.0	0.0	0.36713	-0.15088	
1807.0	0.0	0.36951	-0.14722	
1808.0	0.0	0.37317	-0.15344	
1809.0	0.0	0.37665	-0.15875	
1810.0	0.0	0.38086	-0.15912	
1811.0	0.0	0.38599	-0.15674	
1812.0	0.0	0.39166	-0.1582	
1813.0	0.0	0.39569	-0.15179	
1814.0	0.0	0.40063	-0.1452	
1815.0	0.0	0.40466	-0.14877	
1816.0	0.0	0.40759	-0.14594	
1817.0	0.0	0.41052	-0.1344	
1818.0	0.0	0.41382	-0.13806	
1819.0	0.0	0.41675	-0.12534	
1820.0	0.0	0.42188	-0.12396	
1821.0	0.0	0.42517	-0.1214	
1822.0	0.0	0.4303	-0.11023	
1823.0	0.0	0.43469	-0.10858	
1824.0	0.0	0.44037	-0.10529	
1825.0	0.0	0.44458	-0.10455	
1826.0	0.0	0.44971	-0.10126	
1827.0	0.0	0.45264	-0.09613	
1828.0	0.0	0.45575	-0.08569	
1829.0	0.0	0.45703	-0.08327	
1830.0	0.0	0.45905	-0.07562	
1831.0	0.0	0.45959	-0.07031	
1832.0	0.0	0.46088	-0.0564	
1833.0	0.0	0.46106	-0.05548	
1834.0	0.0	0.46216	-0.04248	
1835.0	0.0	0.46289	-0.03497	
1836.0	0.0	0.46509	-0.02527	
1837.0	0.0	0.466	-0.02197	
1838.0	0.0	0.46802	-0.0119	
1839.0	0.0	0.47131	-0.01007	
1840.0	0.0	0.47534	-0.0022	
1841.0	0.0	0.4801	0.00531	
1842.0	0.0	0.4845	0.01062	
1843.0	0.0	0.48889	0.02124	
1844.0	0.0	0.49329	0.02692	
1845.0	0.0	0.49585	0.03699	
1846.0	0.0	0.49841	0.04504	
1847.0	0.0	0.49988	0.04688	
1848.0	0.0	0.50208	0.05731	
1849.0	0.0	0.50317	0.06143	
1850.0	0.0	0.5061	0.06995	
1851.0	0.0	0.5083	0.07764	
1852.0	0.0	0.51196	0.07965	
1853.0	0.0	0.51489	0.08395	
1854.0	0.0	0.52002	0.08752	
1855.0	0.0	0.52295	0.091	
1856.0	0.0	0.52753	0.0932	
1857.0	0.0	0.53137	0.09686	
1858.0	0.0	0.53577	0.09741	
1859.0	0.0	0.54053	0.10382	
1860.0	0.0	0.54492	0.10474	
1861.0	0.0	0.54895	0.10062	
1862.0	0.0	0.55334	0.09979	
1863.0	0.0	0.55737	0.09686	
1864.0	0.0	0.5614	0.09229	
1865.0	0.0	0.56506	0.09155	
1866.0	0.0	0.56873	0.08881	
1867.0	0.0	0.57275	0.08624	
1868.0	0.0	0.57751	0.08752	
1869.0	0.0	0.58008	0.08235	
1870.0	0.0	0.58374	0.0813	
1871.0	0.0	0.58594	0.08038	
1872.0	0.0	0.5885	0.07526	
1873.0	0.0	0.5896	0.07507	
1874.0	0.0	0.59198	0.07635	
1875.0	0.0	0.59326	0.06665	
1876.0	0.0	0.59473	0.07013	
1877.0	0.0	0.59473	0.06427	
1878.0	0.0	0.59473	0.06281	
1879.0	0.0	0.59363	0.06775	
1880.0	0.0	0.59344	0.06958	
1881.0	0.0	0.59344	0.06519	
1882.0	0.0	0.59491	0.06976	
1883.0	0.0	0.59692	0.06299	
1884.0	0.0	0.60077	0.07031	
1885.0	0.0	0.60278	0.06464	
1886.0	0.0	0.60608	0.06281	
1887.0	0.0	0.60791	0.06262	
1888.0	0.0	0.61084	0.06793	
1889.0	0.0	0.61377	0.07581	
1890.0	0.0	0.61816	0.06995	
1891.0	0.0	0.62219	0.07599	
1892.0	0.0	0.62659	0.0813	
1893.0	0.0	0.62933	0.09027	
1894.0	0.0	0.63336	0.09778	
1895.0	0.0	0.63647	0.10565	
1896.0	0.0	0.63977	0.10345	
1897.0	0.0	0.6416	0.10858	
1898.0	0.0	0.64453	0.12012	
1899.0	0.0	0.64746	0.11389	
1900.0	0.0	0.65149	0.11737	
1901.0	0.0	0.65442	0.11646	
1902.0	0.0	0.65881	0.11462	
1903.0	0.0	0.66357	0.10675	
1904.0	0.0	0.6687	0.10547	
1905.0	0.0	0.67236	0.10547	
1906.0	0.0	0.67749	0.09961	
1907.0	0.0	0.68005	0.10107	
1908.0	0.0	0.68262	0.09558	
1909.0	0.0	0.68262	0.08881	
1910.0	0.0	0.68262	0.0899	
1911.0	0.0	0.6806	0.08185	
1912.0	0.0	0.67841	0.06848	
1913.0	0.0	0.67493	0.06152	
1914.0	0.0	0.67163	0.05786	
1915.0	0.0	0.6665	0.04926	
1916.0	0.0	0.66284	0.04376	
1917.0	0.0	0.65771	0.03571	
1918.0	0.0	0.65332	0.03113	
1919.0	0.0	0.64856	0.00787	
1920.0	0.0	0.64526	-0.00092	
1921.0	0.0	0.64124	-0.01245	
1922.0	0.0	0.63757	-0.01483	
1923.0	0.0	0.63208	-0.03918	
1924.0	0.0	0.6264	-0.03488	
1925.0	0.0	0.61908	-0.05438	
1926.0	0.0	0.61194	-0.06152	
1927.0	0.0	0.60242	-0.07141	
1928.0	0.0	0.59253	-0.08276	
1929.0	0.0	0.58191	-0.08862	
1930.0	0.0	0.57166	-0.09961	
1931.0	0.0	0.5603	-0.1084	
1932.0	0.0	0.55042	-0.10199	
1933.0	0.0	0.53943	-0.11462	
1934.0	0.0	0.52917	-0.11737	
1935.0	0.0	0.5191	-0.13	
1936.0	0.0	0.50977	-0.12872	
1937.0	0.0	0.49915	-0.1377	
1938.0	0.0	0.48889	-0.1474	
1939.0	0.0	0.47791	-0.15125	
1940.0	0.0	0.46655	-0.1571	
1941.0	0.0	0.45447	-0.16296	
1942.0	0.0	0.44275	-0.16663	
1943.0	0.0	0.42993	-0.17551	
1944.0	0.0	0.41821	-0.17358	
1945.0	0.0	0.40576	-0.16846	
1946.0	0.0	0.39331	-0.17825	
1947.0	0.0	0.38086	-0.17651	
1948.0	0.0	0.36877	-0.16525	
1949.0	0.0	0.35669	-0.16534	
1950.0	0.0	0.34552	-0.16141	
1951.0	0.0	0.33472	-0.1572	
1952.0	0.0	0.32391	-0.14502	
1953.0	0.0	0.31274	-0.14319	
1954.0	0.0	0.30212	-0.13184	
1955.0	0.0	0.29077	-0.12085	
1956.0	0.0	0.28052	-0.10931	
1957.0	0.0	0.27026	-0.09933	
1958.0	0.0	0.26038	-0.08899	
1959.0	0.0	0.25195	-0.0802	
1960.0	0.0	0.24408	-0.07196	
1961.0	0.0	0.23712	-0.06537	
1962.0	0.0	0.23108	-0.05878	
1963.0	0.0	0.22559	-0.0542	
1964.0	0.0	0.22156	-0.04907	
1965.0	0.0	0.21826	-0.04614	
1966.0	0.0	0.2157	-0.04395	
1967.0	0.0	0.2124	-0.04156	
1968.0	0.0	0.20874	-0.0423	
1969.0	0.0	0.20435	-0.04303	
1970.0	0.0	0.2016	-0.0434	
1971.0	0.0	0.19812	-0.04468	
1972.0	0.0	0.1972	-0.04596	
1973.0	0.0	0.19592	-0.04944	
1974.0	0.0	0.19702	-0.05219	
1975.0	0.0	0.19812	-0.05768	
1976.0	0.0	0.19922	-0.06335	
1977.0	0.0	0.19867	-0.07178	
1978.0	0.0	0.19812	-0.08171	
1979.0	0.0	0.19684	-0.09521	
1980.0	0.0	0.19574	-0.1106	
1981.0	0.0	0.19574	-0.12689	
1982.0	0.0	0.19702	-0.14447	
1983.0	0.0	0.19867	-0.16571	
1984.0	0.0	0.20142	-0.18604	
1985.0	0.0	0.20251	-0.20819	
1986.0	0.0	0.20508	-0.2298	
1987.0	0.0	0.20837	-0.2547	
1988.0	0.0	0.21277	-0.2774	
1989.0	0.0	0.21716	-0.29031	
1990.0	0.0	0.22192	-0.31238	
1991.0	0.0	0.22595	-0.33252	
1992.0	0.0	0.22943	-0.34232	
1993.0	0.0	0.23346	-0.36475	
1994.0	0.0	0.23657	-0.36914	
1995.0	0.0	0.2395	-0.38681	
1996.0	0.0	0.24353	-0.39496	
1997.0	0.0	0.24609	-0.40823	
1998.0	0.0	0.24939	-0.40942	
1999.0	0.0	0.25049	-0.3999	
2000.0	0.0	0.25049	-0.4021	
2001.0	0.0	0.24902	-0.39752	
2002.0	0.0	0.24664	-0.38416	
2003.0	0.0	0.24261	-0.36896	
2004.0	0.0	0.2395	-0.3598	
2005.0	0.0	0.23529	-0.34625	
2006.0	0.0	0.2309	-0.32611	
2007.0	0.0	0.22632	-0.31274	
2008.0	0.0	0.22229	-0.29425	
2009.0	0.0	0.21863	-0.28198	
2010.0	0.0	0.2168	-0.27283	
2011.0	0.0	0.21387	-0.25653	
2012.0	0.0	0.21313	-0.25749	
2013.0	0.0	0.2124	-0.25342	
2014.0	0.0	0.21313	-0.24664	
2015.0	0.0	0.21277	-0.24243	
2016.0	0.0	0.2124	-0.24261	
2017.0	0.0	0.21057	-0.2417	
2018.0	0.0	0.20801	-0.2406	
2019.0	0.0	0.20453	-0.23492	
2020.0	0.0	0.20068	-0.23282	
2021.0	0.0	0.19629	-0.22925	
2022.0	0.0	0.19281	-0.22998	
2023.0	0.0	0.18951	-0.21735	
2024.0	0.0	0.18915	-0.21497	
2025.0	0.0	0.1897	-0.20435	
2026.0	0.0	0.19208	-0.20215	
2027.0	0.0	0.19501	-0.19931	
2028.0	0.0	0.1994	-0.19867	
2029.0	0.0	0.20361	-0.19482	
2030.0	0.0	0.20801	-0.19519	
2031.0	0.0	0.21057	-0.19208	
2032.0	0.0	0.2135	-0.19025	
2033.0	0.0	0.21552	-0.18549	
2034.0	0.0	0.21716	-0.18237	
2035.0	0.0	0.2179	-0.1778	
2036.0	0.0	0.21973	-0.17542	
2037.0	0.0	0.21973	-0.17871	
2038.0	0.0	0.22064	-0.17816	
2039.0	0.0	0.22119	-0.17908	
2040.0	0.0	0.22266	-0.17303	
2041.0	0.0	0.22266	-0.16699	
2042.0	0.0	0.22339	-0.16315	
2043.0	0.0	0.22449	-0.15619	
2044.0	0.0	0.2265	-0.14667	
2045.0	0.0	0.22925	-0.14685	
2046.0	0.0	0.23401	-0.14264	
2047.0	0.0	0.2395	-0.13568	
2048.0	0.0	0.24683	-0.13843	
2049.0	0.0	0.25049	-0.13623	
2050.0	0.0	0.25635	-0.1333	
2051.0	0.0	0.26019	-0.13696	
2052.0	0.0	0.26514	-0.13623	
2053.0	0.0	0.26898	-0.13495	
2054.0	0.0	0.27539	-0.13513	
2055.0	0.0	0.28198	-0.12762	
2056.0	0.0	0.28931	-0.12561	
2057.0	0.0	0.29626	-0.1214	
2058.0	0.0	0.30469	-0.10913	
2059.0	0.0	0.31128	-0.10913	
2060.0	0.0	0.3175	-0.09906	
2061.0	0.0	0.32263	-0.09998	
2062.0	0.0	0.32739	-0.09814	
2063.0	0.0	0.33344	-0.09869	
2064.0	0.0	0.33984	-0.09787	
2065.0	0.0	0.34607	-0.11041	
2066.0	0.0	0.35339	-0.11243	
2067.0	0.0	0.36035	-0.12671	
2068.0	0.0	0.36658	-0.13586	
2069.0	0.0	0.37134	-0.14008	
2070.0	0.0	0.37427	-0.14337	
2071.0	0.0	0.37427	-0.13843	
2072.0	0.0	0.37244	-0.14136	
2073.0	0.0	0.36804	-0.13861	
2074.0	0.0	0.36182	-0.12817	
2075.0	0.0	0.35449	-0.12836	
2076.0	0.0	0.34534	-0.12085	
2077.0	0.0	0.33563	-0.1203	
2078.0	0.0	0.3252	-0.12158	
2079.0	0.0	0.31567	-0.11829	
2080.0	0.0	0.3067	-0.1268	
2081.0	0.0	0.29718	-0.12982	
2082.0	0.0	0.28857	-0.13687	
2083.0	0.0	0.27997	-0.14392	
2084.0	0.0	0.27209	-0.1507	
2085.0	0.0	0.26294	-0.16452	
2086.0	0.0	0.25415	-0.17029	
2087.0	0.0	0.245	-0.17963	
2088.0	0.0	0.23547	-0.18475	
2089.0	0.0	0.22522	-0.18384	
2090.0	0.0	0.2146	-0.19135	
2091.0	0.0	0.20178	-0.19446	
2092.0	0.0	0.18933	-0.19537	
2093.0	0.0	0.17688	-0.19391	
2094.0	0.0	0.16516	-0.19263	
2095.0	0.0	0.15271	-0.1864	
2096.0	0.0	0.14191	-0.18347	
2097.0	0.0	0.13	-0.18054	
2098.0	0.0	0.11902	-0.17546	
2099.0	0.0	0.10785	-0.16974	
2100.0	0.0	0.09833	-0.1626	
2101.0	0.0	0.08936	-0.15674	
2102.0	0.0	0.08276	-0.1507	
2103.0	0.0	0.07544	-0.14374	
2104.0	0.0	0.07031	-0.13824	
2105.0	0.0	0.06482	-0.13445	
2106.0	0.0	0.06024	-0.13184	
2107.0	0.0	0.05457	-0.12827	
2108.0	0.0	0.04907	-0.12378	
2109.0	0.0	0.04266	-0.11902	
2110.0	0.0	0.03589	-0.1116	
2111.0	0.0	0.02856	-0.10455	
2112.0	0.0	0.02124	-0.09998	
2113.0	0.0	0.01245	-0.09343	
2114.0	0.0	0.00348	-0.08899	
2115.0	0.0	-0.00568	-0.078	
2116.0	0.0	-0.01355	-0.07123	
2117.0	0.0	-0.02197	-0.06042	
2118.0	0.0	-0.03076	-0.04761	
2119.0	0.0	-0.03992	-0.03864	
2120.0	0.0	-0.04944	-0.02344	
2121.0	0.0	-0.06061	-0.00458	
2122.0	0.0	-0.07306	0.00311	
2123.0	0.0	-0.08588	0.02307	
2124.0	0.0	-0.09833	0.03625	
2125.0	0.0	-0.11023	0.03717	
2126.0	0.0	-0.12012	0.04559	
2127.0	0.0	-0.12817	0.05255	
2128.0	0.0	-0.13293	0.06335	
2129.0	0.0	-0.13586	0.06079	
2130.0	0.0	-0.13623	0.06445	
2131.0	0.0	-0.1344	0.05182	
2132.0	0.0	-0.13019	0.05182	
2133.0	0.0	-0.12543	0.03992	
2134.0	0.0	-0.11755	0.02966	
2135.0	0.0	-0.10986	0.01685	
2136.0	0.0	-0.10052	0.00568	
2137.0	0.0	-0.09229	-0.00385	
2138.0	0.0	-0.08459	-0.01538	
2139.0	0.0	-0.07727	-0.03149	
2140.0	0.0	-0.07059	-0.04404	
2141.0	0.0	-0.06372	-0.06006	
2142.0	0.0	-0.05585	-0.0705	
2143.0	0.0	-0.04834	-0.08936	
2144.0	0.0	-0.0379	-0.11005	
2145.0	0.0	-0.02783	-0.12305	
2146.0	0.0	-0.0152	-0.14062	
2147.0	0.0	-0.00146	-0.14813	
2148.0	0.0	0.01465	-0.15939	
2149.0	0.0	0.03076	-0.16681	
2150.0	0.0	0.04871	-0.17249	
2151.0	0.0	0.06665	-0.17413	
2152.0	0.0	0.0835	-0.17276	
2153.0	0.0	0.09961	-0.16608	
2154.0	0.0	0.11353	-0.1582	
2155.0	0.0	0.12598	-0.14795	
2156.0	0.0	0.13623	-0.13568	
2157.0	0.0	0.14392	-0.12488	
2158.0	0.0	0.15106	-0.11224	
2159.0	0.0	0.15564	-0.10034	
2160.0	0.0	0.15967	-0.08624	
2161.0	0.0	0.16406	-0.07104	
2162.0	0.0	0.16992	-0.05402	
2163.0	0.0	0.17761	-0.03882	
2164.0	0.0	0.18713	-0.02399	
2165.0	0.0	0.19849	-0.01144	
2166.0	0.0	0.21167	0.0	
2167.0	0.0	0.2254	0.01044	
2168.0	0.0	0.23914	0.02051	
2169.0	0.0	0.25232	0.02911	
2170.0	0.0	0.2655	0.03497	
2171.0	0.0	0.27393	0.0423	
2172.0	0.0	0.28052	0.04651	
2173.0	0.0	0.28491	0.04797	
2174.0	0.0	0.28766	0.05273	
2175.0	0.0	0.28784	0.05347	
2176.0	0.0	0.28821	0.05841	
2177.0	0.0	0.28711	0.06097	
2178.0	0.0	0.28528	0.06482	
2179.0	0.0	0.28162	0.06903	
2180.0	0.0	0.27905	0.07251	
2181.0	0.0	0.27759	0.0813	
2182.0	0.0	0.27649	0.08716	
2183.0	0.0	0.27686	0.09137	
2184.0	0.0	0.27905	0.09407	
2185.0	0.0	0.28198	0.09338	
2186.0	0.0	0.28601	0.09302	
2187.0	0.0	0.29077	0.09229	
2188.0	0.0	0.29791	0.08643	
2189.0	0.0	0.30396	0.08258	
2190.0	0.0	0.31201	0.07599	
2191.0	0.0	0.31915	0.06848	
2192.0	0.0	0.32684	0.06152	
2193.0	0.0	0.33362	0.05292	
2194.0	0.0	0.33929	0.04385	
2195.0	0.0	0.34296	0.03534	
2196.0	0.0	0.3457	0.03021	
2197.0	0.0	0.34717	0.026	
2198.0	0.0	0.3479	0.02344	
2199.0	0.0	0.34827	0.02051	
2200.0	0.0	0.34808	0.01813	
2201.0	0.0	0.34698	0.01666	
2202.0	0.0	0.34625	0.01392	
2203.0	0.0	0.34387	0.0141	
2204.0	0.0	0.34167	0.01538	
2205.0	0.0	0.33966	0.01666	
2206.0	0.0	0.33875	0.01886	
2207.0	0.0	0.33966	0.01758	
2208.0	0.0	0.34351	0.01556	
2209.0	0.0	0.34937	0.013	
2210.0	0.0	0.35577	0.00531	
2211.0	0.0	0.36292	-0.00238	
2212.0	0.0	0.37024	-0.00842	
2213.0	0.0	0.37793	-0.01566	
2214.0	0.0	0.38599	-0.02454	
2215.0	0.0	0.39514	-0.03607	
2216.0	0.0	0.40521	-0.04578	
2217.0	0.0	0.41492	-0.05383	
2218.0	0.0	0.42407	-0.06116	
2219.0	0.0	0.43286	-0.06812	
2220.0	0.0	0.44238	-0.0769	
2221.0	0.0	0.45044	-0.08917	
2222.0	0.0	0.46069	-0.09979	
2223.0	0.0	0.47021	-0.11023	
2224.0	0.0	0.48157	-0.11755	
2225.0	0.0	0.49365	-0.12195	
2226.0	0.0	0.5061	-0.1344	
2227.0	0.0	0.51801	-0.1485	
2228.0	0.0	0.52954	-0.15454	
2229.0	0.0	0.53979	-0.15729	
2230.0	0.0	0.54895	-0.1474	
2231.0	0.0	0.55774	-0.1571	
2232.0	0.0	0.56616	-0.15289	
2233.0	0.0	0.57422	-0.13605	
2234.0	0.0	0.58264	-0.13358	
2235.0	0.0	0.5896	-0.1311	
2236.0	0.0	0.59839	-0.1062	
2237.0	0.0	0.60498	-0.10217	
2238.0	0.0	0.61157	-0.08661	
2239.0	0.0	0.6167	-0.07947	
2240.0	0.0	0.62219	-0.05878	
2241.0	0.0	0.62585	-0.0401	
2242.0	0.0	0.62842	-0.02875	
2243.0	0.0	0.62952	-0.01208	
2244.0	0.0	0.62952	0.00769	
2245.0	0.0	0.63025	0.01685	
2246.0	0.0	0.63025	0.02783	
2247.0	0.0	0.63025	0.03864	
2248.0	0.0	0.63025	0.05511	
2249.0	0.0	0.63153	0.06006	
2250.0	0.0	0.63318	0.07306	
2251.0	0.0	0.63538	0.08643	
2252.0	0.0	0.63867	0.10657	
2253.0	0.0	0.64343	0.11737	
2254.0	0.0	0.64856	0.1377	
2255.0	0.0	0.65332	0.14886	
2256.0	0.0	0.65845	0.16772	
2257.0	0.0	0.66211	0.18842	
2258.0	0.0	0.66669	0.20673	
2259.0	0.0	0.6698	0.2265	
2260.0	0.0	0.67383	0.2428	
2261.0	0.0	0.67603	0.25269	
2262.0	0.0	0.67969	0.26331	
2263.0	0.0	0.68188	0.27393	
2264.0	0.0	0.68372	0.28638	
2265.0	0.0	0.68445	0.2926	
2266.0	0.0	0.6839	0.30249	
2267.0	0.0	0.68262	0.3089	
2268.0	0.0	0.67932	0.31348	
2269.0	0.0	0.67493	0.31696	
2270.0	0.0	0.6698	0.31824	
2271.0	0.0	0.66284	0.3208	
2272.0	0.0	0.65552	0.32172	
2273.0	0.0	0.64746	0.32245	
2274.0	0.0	0.63831	0.323	
2275.0	0.0	0.62769	0.32391	
2276.0	0.0	0.61542	0.32538	
2277.0	0.0	0.60205	0.32721	
2278.0	0.0	0.58777	0.32446	
2279.0	0.0	0.57349	0.3219	
2280.0	0.0	0.56268	0.31494	
2281.0	0.0	0.55518	0.30157	
2282.0	0.0	0.55371	0.28674	
2283.0	0.0	0.55847	0.27191	
2284.0	0.0	0.56818	0.2558	
2285.0	0.0	0.58118	0.23566	
2286.0	0.0	0.59894	0.2157	
2287.0	0.0	0.61816	0.19574	
2288.0	0.0	0.63959	0.1756	
2289.0	0.0	0.66101	0.15582	
2290.0	0.0	0.68188	0.13934	
2291.0	0.0	0.70312	0.12323	
2292.0	0.0	0.72363	0.11499	
2293.0	0.0	0.74432	0.10657	
2294.0	0.0	0.76575	0.10968	
2295.0	0.0	0.78735	0.11115	
2296.0	0.0	0.80933	0.11536	
2297.0	0.0	0.8313	0.11133	
2298.0	0.0	0.85254	0.11334	
2299.0	0.0	0.87305	0.12085	
2300.0	0.0	0.89246	0.12543	
2301.0	0.0	0.90729	0.11096	
2302.0	0.0	0.91956	0.12149	
2303.0	0.0	0.92871	0.10748	
2304.0	0.0	0.93457	0.10931	
2305.0	0.0	0.93604	0.11151	
2306.0	0.0	0.9364	0.09137	
2307.0	0.0	0.93457	0.09375	
2308.0	0.0	0.93018	0.09283	
2309.0	0.0	0.92358	0.09393	
2310.0	0.0	0.91589	0.09283	
2311.0	0.0	0.90527	0.10272	
2312.0	0.0	0.89447	0.09888	
2313.0	0.0	0.88202	0.09961	
2314.0	0.0	0.87195	0.11279	
2315.0	0.0	0.86096	0.11664	
2316.0	0.0	0.85217	0.12012	
2317.0	0.0	0.84265	0.14355	
2318.0	0.0	0.83569	0.14703	
2319.0	0.0	0.82837	0.16077	
2320.0	0.0	0.82178	0.17102	
2321.0	0.0	0.81702	0.18274	
2322.0	0.0	0.81116	0.18549	
2323.0	0.0	0.8064	0.19189	
2324.0	0.0	0.80273	0.20178	
2325.0	0.0	0.79834	0.20856	
2326.0	0.0	0.79504	0.21405	
2327.0	0.0	0.79138	0.2168	
2328.0	0.0	0.7868	0.22119	
2329.0	0.0	0.78113	0.22298	
2330.0	0.0	0.77637	0.22412	
2331.0	0.0	0.77161	0.22284	
2332.0	0.0	0.76758	0.21936	
2333.0	0.0	0.76318	0.21954	
2334.0	0.0	0.75952	0.21771	
2335.0	0.0	0.75659	0.21515	
2336.0	0.0	0.75366	0.21552	
2337.0	0.0	0.75073	0.21552	
2338.0	0.0	0.7467	0.21643	
2339.0	0.0	0.74286	0.20636	
2340.0	0.0	0.73865	0.20471	
2341.0	0.0	0.73389	0.19775	
2342.0	0.0	0.72913	0.1864	
2343.0	0.0	0.7229	0.1842	
2344.0	0.0	0.71777	0.16589	
2345.0	0.0	0.71118	0.15674	
2346.0	0.0	0.70459	0.14095	
2347.0	0.0	0.698	0.1236	
2348.0	0.0	0.69067	0.10785	
2349.0	0.0	0.68298	0.09686	
2350.0	0.0	0.67419	0.08331	
2351.0	0.0	0.66376	0.06976	
2352.0	0.0	0.65369	0.06152	
2353.0	0.0	0.64087	0.05145	
2354.0	0.0	0.62732	0.04523	
2355.0	0.0	0.61176	0.03625	
2356.0	0.0	0.59656	0.03003	
2357.0	0.0	0.58026	0.02783	
2358.0	0.0	0.5647	0.01373	
2359.0	0.0	0.54932	0.00659	
2360.0	0.0	0.53467	0.00311	
2361.0	0.0	0.52148	-0.00256	
2362.0	0.0	0.50848	-0.02032	
2363.0	0.0	0.49402	-0.02472	
2364.0	0.0	0.47955	-0.03717	
2365.0	0.0	0.46454	-0.05237	
2366.0	0.0	0.45099	-0.06262	
2367.0	0.0	0.43579	-0.07544	
2368.0	0.0	0.42133	-0.08038	
2369.0	0.0	0.40741	-0.0834	
2370.0	0.0	0.39404	-0.09485	
2371.0	0.0	0.38086	-0.10199	
2372.0	0.0	0.36768	-0.11023	
2373.0	0.0	0.35413	-0.1192	
2374.0	0.0	0.34222	-0.12103	
2375.0	0.0	0.32812	-0.12781	
2376.0	0.0	0.31641	-0.13348	
2377.0	0.0	0.30322	-0.13403	
2378.0	0.0	0.29041	-0.1387	
2379.0	0.0	0.27832	-0.1474	
2380.0	0.0	0.26678	-0.14813	
2381.0	0.0	0.25433	-0.16095	
2382.0	0.0	0.2428	-0.16827	
2383.0	0.0	0.23035	-0.17505	
2384.0	0.0	0.21826	-0.17807	
2385.0	0.0	0.20581	-0.18439	
2386.0	0.0	0.19281	-0.19208	
2387.0	0.0	0.17981	-0.19812	
2388.0	0.0	0.16589	-0.20398	
2389.0	0.0	0.15234	-0.21062	
2390.0	0.0	0.13861	-0.21606	
2391.0	0.0	0.12524	-0.22238	
2392.0	0.0	0.11224	-0.22852	
2393.0	0.0	0.09979	-0.23438	
2394.0	0.0	0.08807	-0.24207	
2395.0	0.0	0.07617	-0.24847	
2396.0	0.0	0.06482	-0.2525	
2397.0	0.0	0.05347	-0.25928	
2398.0	0.0	0.04266	-0.2655	
2399.0	0.0	0.03113	-0.26807	
2400.0	0.0	0.02032	-0.27118	
2401.0	0.0	0.00879	-0.27338	
2402.0	0.0	-0.0022	-0.27612	
2403.0	0.0	-0.013	-0.27924	
2404.0	0.0	-0.02325	-0.28354	
2405.0	0.0	-0.03351	-0.28674	
2406.0	0.0	-0.04303	-0.29059	
2407.0	0.0	-0.05273	-0.29535	
2408.0	0.0	-0.06226	-0.29828	
2409.0	0.0	-0.07178	-0.30121	
2410.0	0.0	-0.08093	-0.30441	
2411.0	0.0	-0.09045	-0.30817	
2412.0	0.0	-0.09943	-0.31082	
2413.0	0.0	-0.1084	-0.31577	
2414.0	0.0	-0.11737	-0.31961	
2415.0	0.0	-0.12598	-0.32355	
2416.0	0.0	-0.13385	-0.32703	
2417.0	0.0	-0.14209	-0.33252	
2418.0	0.0	-0.14868	-0.336	
2419.0	0.0	-0.15591	-0.34113	
2420.0	0.0	-0.16187	-0.34589	
2421.0	0.0	-0.16864	-0.35046	
2422.0	0.0	-0.17542	-0.35413	
2423.0	0.0	-0.18164	-0.35651	
2424.0	0.0	-0.18805	-0.35852	
2425.0	0.0	-0.19482	-0.36072	
2426.0	0.0	-0.20123	-0.36346	
2427.0	0.0	-0.20837	-0.36722	
2428.0	0.0	-0.21497	-0.36859	
2429.0	0.0	-0.22101	-0.37042	
2430.0	0.0	-0.22632	-0.37299	
2431.0	0.0	-0.22925	-0.37701	
2432.0	0.0	-0.23181	-0.37793	
2433.0	0.0	-0.23492	-0.37921	
2434.0	0.0	-0.2373	-0.38416	
2435.0	0.0	-0.2395	-0.38452	
2436.0	0.0	-0.24097	-0.38571	
2437.0	0.0	-0.24207	-0.38617	
2438.0	0.0	-0.2428	-0.38727	
2439.0	0.0	-0.24243	-0.38928	
2440.0	0.0	-0.2406	-0.39075	
2441.0	0.0	-0.23932	-0.39093	
2442.0	0.0	-0.2373	-0.39075	
2443.0	0.0	-0.23621	-0.38763	
2444.0	0.0	-0.23492	-0.38571	
2445.0	0.0	-0.23383	-0.37994	
2446.0	0.0	-0.23218	-0.37555	
2447.0	0.0	-0.22998	-0.37207	
2448.0	0.0	-0.22668	-0.37134	
2449.0	0.0	-0.22412	-0.37381	
2450.0	0.0	-0.22119	-0.37372	
2451.0	0.0	-0.21863	-0.375	
2452.0	0.0	-0.21716	-0.37537	
2453.0	0.0	-0.2157	-0.37262	
2454.0	0.0	-0.21497	-0.36987	
2455.0	0.0	-0.21423	-0.36511	
2456.0	0.0	-0.21442	-0.36145	
2457.0	0.0	-0.21497	-0.35797	
2458.0	0.0	-0.21533	-0.35596	
2459.0	0.0	-0.21735	-0.35339	
2460.0	0.0	-0.21991	-0.35138	
2461.0	0.0	-0.22266	-0.34433	
2462.0	0.0	-0.22412	-0.3371	
2463.0	0.0	-0.22595	-0.32886	
2464.0	0.0	-0.22687	-0.32227	
2465.0	0.0	-0.22705	-0.31476	
2466.0	0.0	-0.2265	-0.31238	
2467.0	0.0	-0.22595	-0.30322	
2468.0	0.0	-0.22485	-0.29865	
2469.0	0.0	-0.22247	-0.29901	
2470.0	0.0	-0.22046	-0.29041	
2471.0	0.0	-0.21844	-0.28711	
2472.0	0.0	-0.21643	-0.28326	
2473.0	0.0	-0.2146	-0.28093	
2474.0	0.0	-0.21259	-0.27997	
2475.0	0.0	-0.21057	-0.28143	
2476.0	0.0	-0.20911	-0.28052	
2477.0	0.0	-0.20764	-0.27658	
2478.0	0.0	-0.20508	-0.27338	
2479.0	0.0	-0.20251	-0.27301	
2480.0	0.0	-0.19995	-0.26569	
2481.0	0.0	-0.1983	-0.26752	
2482.0	0.0	-0.19556	-0.26129	
2483.0	0.0	-0.19263	-0.25928	
2484.0	0.0	-0.19006	-0.25598	
2485.0	0.0	-0.18768	-0.25909	
2486.0	0.0	-0.18475	-0.25195	
2487.0	0.0	-0.18311	-0.24884	
2488.0	0.0	-0.18164	-0.24518	
2489.0	0.0	-0.18045	-0.24353	
2490.0	0.0	-0.17908	-0.24518	
2491.0	0.0	-0.17871	-0.2373	
2492.0	0.0	-0.1778	-0.23621	
2493.0	0.0	-0.17761	-0.23602	
2494.0	0.0	-0.1778	-0.23639	
2495.0	0.0	-0.17816	-0.24023	
2496.0	0.0	-0.17944	-0.23639	
2497.0	0.0	-0.17963	-0.23547	
2498.0	0.0	-0.17798	-0.23511	
2499.0	0.0	-0.17432	-0.24023	
2500.0	0.0	-0.17139	-0.23712	
2501.0	0.0	-0.16937	-0.23932	
2502.0	0.0	-0.16699	-0.24188	
2503.0	0.0	-0.16443	-0.24683	
2504.0	0.0	-0.16333	-0.24884	
2505.0	0.0	-0.16223	-0.24939	
2506.0	0.0	-0.1604	-0.25433	
2507.0	0.0	-0.15875	-0.25415	
2508.0	0.0	-0.15619	-0.25012	
2509.0	0.0	-0.15363	-0.24866	
2510.0	0.0	-0.15106	-0.24738	
2511.0	0.0	-0.14996	-0.24957	
2512.0	0.0	-0.1485	-0.24765	
2513.0	0.0	-0.14758	-0.24316	
2514.0	0.0	-0.14539	-0.2406	
2515.0	0.0	-0.14355	-0.2395	
2516.0	0.0	-0.14099	-0.24298	
2517.0	0.0	-0.13971	-0.24069	
2518.0	0.0	-0.13806	-0.24261	
2519.0	0.0	-0.13715	-0.2428	
2520.0	0.0	-0.13678	-0.24664	
2521.0	0.0	-0.13678	-0.24829	
2522.0	0.0	-0.13733	-0.24335	
2523.0	0.0	-0.13916	-0.24115	
2524.0	0.0	-0.14282	-0.24316	
2525.0	0.0	-0.14685	-0.23621	
2526.0	0.0	-0.15106	-0.23529	
2527.0	0.0	-0.15674	-0.23245	
2528.0	0.0	-0.16223	-0.23291	
2529.0	0.0	-0.16809	-0.22742	
2530.0	0.0	-0.17322	-0.22632	
2531.0	0.0	-0.17798	-0.22064	
2532.0	0.0	-0.18182	-0.21808	
2533.0	0.0	-0.18549	-0.2157	
2534.0	0.0	-0.18787	-0.21002	
2535.0	0.0	-0.18896	-0.20929	
2536.0	0.0	-0.18933	-0.20215	
2537.0	0.0	-0.1886	-0.2027	
2538.0	0.0	-0.1875	-0.20105	
2539.0	0.0	-0.18604	-0.18933	
2540.0	0.0	-0.18494	-0.18375	
2541.0	0.0	-0.18439	-0.18091	
2542.0	0.0	-0.18329	-0.17303	
2543.0	0.0	-0.18292	-0.1712	
2544.0	0.0	-0.18091	-0.16608	
2545.0	0.0	-0.17908	-0.16223	
2546.0	0.0	-0.17615	-0.15399	
2547.0	0.0	-0.17212	-0.1496	
2548.0	0.0	-0.16718	-0.14383	
2549.0	0.0	-0.16132	-0.13705	
2550.0	0.0	-0.15564	-0.13074	
2551.0	0.0	-0.14832	-0.13367	
2552.0	0.0	-0.14062	-0.12488	
2553.0	0.0	-0.13184	-0.12103	
2554.0	0.0	-0.12231	-0.1214	
2555.0	0.0	-0.11096	-0.12231	
2556.0	0.0	-0.09842	-0.12744	
2557.0	0.0	-0.08533	-0.12927	
2558.0	0.0	-0.07123	-0.13916	
2559.0	0.0	-0.05823	-0.13733	
2560.0	0.0	-0.04413	-0.14337	
2561.0	0.0	-0.03113	-0.14886	
2562.0	0.0	-0.01813	-0.15033	
2563.0	0.0	-0.00513	-0.15308	
2564.0	0.0	0.00824	-0.15491	
2565.0	0.0	0.02234	-0.15857	
2566.0	0.0	0.03699	-0.16077	
2567.0	0.0	0.05273	-0.16223	
2568.0	0.0	0.06848	-0.16608	
2569.0	0.0	0.08313	-0.16589	
2570.0	0.0	0.09778	-0.16809	
2571.0	0.0	0.11206	-0.16992	
2572.0	0.0	0.12671	-0.17139	
2573.0	0.0	0.14099	-0.17139	
2574.0	0.0	0.15527	-0.17303	
2575.0	0.0	0.16864	-0.17267	
2576.0	0.0	0.18164	-0.1712	
2577.0	0.0	0.19373	-0.17249	
2578.0	0.0	0.20435	-0.17285	
2579.0	0.0	0.21423	-0.17285	
2580.0	0.0	0.22375	-0.16974	
2581.0	0.0	0.23254	-0.1723	
2582.0	0.0	0.2406	-0.16772	
2583.0	0.0	0.24866	-0.15948	
2584.0	0.0	0.25525	-0.14978	
2585.0	0.0	0.26184	-0.14264	
2586.0	0.0	0.26697	-0.13513	
2587.0	0.0	0.27173	-0.12341	
2588.0	0.0	0.27576	-0.11755	
2589.0	0.0	0.27942	-0.1062	
2590.0	0.0	0.28326	-0.09723	
2591.0	0.0	0.28638	-0.08478	
2592.0	0.0	0.28967	-0.07086	
2593.0	0.0	0.2937	-0.06262	
2594.0	0.0	0.2981	-0.0542	
2595.0	0.0	0.30341	-0.04742	
2596.0	0.0	0.30908	-0.03809	
2597.0	0.0	0.31494	-0.02655	
2598.0	0.0	0.32153	-0.01959	
2599.0	0.0	0.32739	-0.00897	
2600.0	0.0	0.33362	0.00348	
2601.0	0.0	0.33984	0.01355	
2602.0	0.0	0.3457	0.02435	
2603.0	0.0	0.35156	0.03589	
2604.0	0.0	0.35852	0.04596	
2605.0	0.0	0.36639	0.05603	
2606.0	0.0	0.37463	0.06775	
2607.0	0.0	0.38452	0.07672	
2608.0	0.0	0.39514	0.08643	
2609.0	0.0	0.4054	0.09723	
2610.0	0.0	0.41547	0.104	
2611.0	0.0	0.42554	0.11279	
2612.0	0.0	0.43524	0.11938	
2613.0	0.0	0.44421	0.12653	
2614.0	0.0	0.45337	0.1344	
2615.0	0.0	0.46216	0.14191	
2616.0	0.0	0.47021	0.14722	
2617.0	0.0	0.479	0.15381	
2618.0	0.0	0.48669	0.15729	
2619.0	0.0	0.49512	0.16296	
2620.0	0.0	0.50317	0.16699	
2621.0	0.0	0.51013	0.16992	
2622.0	0.0	0.51819	0.17358	
2623.0	0.0	0.52478	0.17816	
2624.0	0.0	0.53247	0.18201	
2625.0	0.0	0.53943	0.18677	
2626.0	0.0	0.54712	0.19281	
2627.0	0.0	0.55334	0.19629	
2628.0	0.0	0.5603	0.20233	
2629.0	0.0	0.56689	0.20618	
2630.0	0.0	0.57349	0.21002	
2631.0	0.0	0.57898	0.21405	
2632.0	0.0	0.58301	0.21936	
2633.0	0.0	0.5874	0.22339	
2634.0	0.0	0.5918	0.22485	
2635.0	0.0	0.59509	0.22723	
2636.0	0.0	0.59985	0.23071	
2637.0	0.0	0.6059	0.23346	
2638.0	0.0	0.60974	0.23126	
2639.0	0.0	0.6145	0.23035	
2640.0	0.0	0.61853	0.22961	
2641.0	0.0	0.62183	0.22852	
2642.0	0.0	0.62567	0.22852	
2643.0	0.0	0.62915	0.22925	
2644.0	0.0	0.63318	0.23035	
2645.0	0.0	0.63684	0.22852	
2646.0	0.0	0.63977	0.22797	
2647.0	0.0	0.64307	0.22888	
2648.0	0.0	0.646	0.23309	
2649.0	0.0	0.64746	0.23456	
2650.0	0.0	0.64874	0.23639	
2651.0	0.0	0.64966	0.23529	
2652.0	0.0	0.64874	0.23767	
2653.0	0.0	0.64874	0.2395	
2654.0	0.0	0.64838	0.23804	
2655.0	0.0	0.64893	0.23676	
2656.0	0.0	0.64966	0.23566	
2657.0	0.0	0.65112	0.23309	
2658.0	0.0	0.65259	0.23346	
2659.0	0.0	0.65479	0.22852	
2660.0	0.0	0.65662	0.23035	
2661.0	0.0	0.65771	0.2298	
2662.0	0.0	0.65845	0.22943	
2663.0	0.0	0.65771	0.22961	
2664.0	0.0	0.65735	0.2287	
2665.0	0.0	0.65698	0.22705	
2666.0	0.0	0.65552	0.22559	
2667.0	0.0	0.65552	0.22449	
2668.0	0.0	0.65588	0.22266	
2669.0	0.0	0.65479	0.22375	
2670.0	0.0	0.65405	0.22412	
2671.0	0.0	0.65369	0.22449	
2672.0	0.0	0.65369	0.22321	
2673.0	0.0	0.65405	0.22247	
2674.0	0.0	0.65405	0.22577	
2675.0	0.0	0.65588	0.22284	
2676.0	0.0	0.65735	0.22211	
2677.0	0.0	0.65881	0.22046	
2678.0	0.0	0.66064	0.2179	
2679.0	0.0	0.66321	0.21588	
2680.0	0.0	0.66504	0.21442	
2681.0	0.0	0.66724	0.21094	
2682.0	0.0	0.66943	0.21121	
2683.0	0.0	0.67126	0.20728	
2684.0	0.0	0.67383	0.20361	
2685.0	0.0	0.67621	0.20105	
2686.0	0.0	0.67896	0.19501	
2687.0	0.0	0.68079	0.19391	
2688.0	0.0	0.68207	0.18896	
2689.0	0.0	0.68353	0.18256	
2690.0	0.0	0.68372	0.18439	
2691.0	0.0	0.68335	0.17358	
2692.0	0.0	0.68262	0.17102	
2693.0	0.0	0.68042	0.16434	
2694.0	0.0	0.67767	0.15527	
2695.0	0.0	0.67456	0.1474	
2696.0	0.0	0.6698	0.13495	
2697.0	0.0	0.66504	0.12305	
2698.0	0.0	0.65991	0.11462	
2699.0	0.0	0.65277	0.10474	
2700.0	0.0	0.64398	0.09137	
2701.0	0.0	0.63446	0.07581	
2702.0	0.0	0.62476	0.06299	
2703.0	0.0	0.61322	0.05127	
2704.0	0.0	0.60077	0.02765	
2705.0	0.0	0.58813	0.02197	
2706.0	0.0	0.57495	-0.0011	
2707.0	0.0	0.55957	-0.01172	
2708.0	0.0	0.54565	-0.02344	
2709.0	0.0	0.53229	-0.03021	
2710.0	0.0	0.51947	-0.04321	
2711.0	0.0	0.50574	-0.05676	
2712.0	0.0	0.49164	-0.07434	
2713.0	0.0	0.47681	-0.08606	
2714.0	0.0	0.46161	-0.10858	
2715.0	0.0	0.44751	-0.11865	
2716.0	0.0	0.43286	-0.13385	
2717.0	0.0	0.41748	-0.14941	
2718.0	0.0	0.40247	-0.1615	
2719.0	0.0	0.38745	-0.16992	
2720.0	0.0	0.3717	-0.18475	
2721.0	0.0	0.35669	-0.19482	
2722.0	0.0	0.34113	-0.19354	
2723.0	0.0	0.3252	-0.20361	
2724.0	0.0	0.30981	-0.22018	
2725.0	0.0	0.29333	-0.22833	
2726.0	0.0	0.27832	-0.23767	
2727.0	0.0	0.2644	-0.24719	
2728.0	0.0	0.25085	-0.25195	
2729.0	0.0	0.23785	-0.26642	
2730.0	0.0	0.22559	-0.28308	
2731.0	0.0	0.21313	-0.29636	
2732.0	0.0	0.20032	-0.30835	
2733.0	0.0	0.18695	-0.31769	
2734.0	0.0	0.17322	-0.32208	
2735.0	0.0	0.15857	-0.33563	
2736.0	0.0	0.14282	-0.34634	
2737.0	0.0	0.12598	-0.35431	
2738.0	0.0	0.1084	-0.36218	
2739.0	0.0	0.08972	-0.36703	
2740.0	0.0	0.07141	-0.38379	
2741.0	0.0	0.05219	-0.38992	
2742.0	0.0	0.03534	-0.39972	
2743.0	0.0	0.01758	-0.41052	
2744.0	0.0	0.00073	-0.4205	
2745.0	0.0	-0.01575	-0.42975	
2746.0	0.0	-0.03223	-0.43094	
2747.0	0.0	-0.04852	-0.4389	
2748.0	0.0	-0.06482	-0.44971	
2749.0	0.0	-0.08185	-0.45795	
2750.0	0.0	-0.09888	-0.46564	
2751.0	0.0	-0.11719	-0.47406	
2752.0	0.0	-0.13605	-0.48285	
2753.0	0.0	-0.15619	-0.48853	
2754.0	0.0	-0.17651	-0.49182	
2755.0	0.0	-0.19775	-0.49548	
2756.0	0.0	-0.21899	-0.49805	
2757.0	0.0	-0.24042	-0.50079	
2758.0	0.0	-0.26111	-0.50446	
2759.0	0.0	-0.28052	-0.5094	
2760.0	0.0	-0.29993	-0.51562	
2761.0	0.0	-0.31915	-0.51965	
2762.0	0.0	-0.33765	-0.52386	
2763.0	0.0	-0.35706	-0.52643	
2764.0	0.0	-0.37573	-0.52716	
2765.0	0.0	-0.39478	-0.52917	
2766.0	0.0	-0.41309	-0.53119	
2767.0	0.0	-0.4313	-0.53375	
2768.0	0.0	-0.44824	-0.53815	
2769.0	0.0	-0.46509	-0.54291	
2770.0	0.0	-0.48102	-0.54785	
2771.0	0.0	-0.49658	-0.55261	
2772.0	0.0	-0.51233	-0.55481	
2773.0	0.0	-0.52844	-0.55536	
2774.0	0.0	-0.54401	-0.55646	
2775.0	0.0	-0.56085	-0.5592	
2776.0	0.0	-0.57806	-0.5528	
2777.0	0.0	-0.59491	-0.55957	
2778.0	0.0	-0.61267	-0.55426	
2779.0	0.0	-0.6308	-0.56012	
2780.0	0.0	-0.65002	-0.56845	
2781.0	0.0	-0.66998	-0.56525	
2782.0	0.0	-0.68921	-0.56909	
2783.0	0.0	-0.70821	-0.5744	
2784.0	0.0	-0.7256	-0.5793	
2785.0	0.0	-0.74249	-0.58612	
2786.0	0.0	-0.75925	-0.5993	
2787.0	0.0	-0.77632	-0.60507	
2788.0	0.0	-0.79211	-0.61812	
2789.0	0.0	-0.80676	-0.62531	
2790.0	0.0	-0.82086	-0.62329	
2791.0	0.0	-0.83331	-0.63629	
2792.0	0.0	-0.84462	-0.65149	
2793.0	0.0	-0.85474	-0.66568	
2794.0	0.0	-0.86444	-0.67383	
2795.0	0.0	-0.87433	-0.68509	
2796.0	0.0	-0.88477	-0.69608	
2797.0	0.0	-0.89594	-0.70184	
2798.0	0.0	-0.9071	-0.71136	
2799.0	0.0	-0.91791	-0.71667	
2800.0	0.0	-0.92706	-0.72418	
2801.0	0.0	-0.93585	-0.73563	
2802.0	0.0	-0.94391	-0.74117	
2803.0	0.0	-0.9516	-0.74359	
2804.0	0.0	-0.96021	-0.75897	
2805.0	0.0	-0.96913	-0.77005	
2806.0	0.0	-0.97916	-0.77289	
2807.0	0.0	-0.98877	-0.7804	
2808.0	0.0	-0.99911	-0.79175	
2809.0	0.0	-1.01001	-0.79395	
2810.0	0.0	-1.02063	-0.8031	
2811.0	0.0	-1.03079	-0.8031	
2812.0	0.0	-1.04178	-0.81299	
2813.0	0.0	-1.05341	-0.82013	
2814.0	0.0	-1.06563	-0.83844	
2815.0	0.0	-1.07771	-0.84705	
2816.0	0.0	-1.08943	-0.85538	
2817.0	0.0	-1.10037	-0.87062	
2818.0	0.0	-1.11072	-0.87653	
2819.0	0.0	-1.12006	-0.89172	
2820.0	0.0	-1.12935	-0.90262	
2821.0	0.0	-1.13818	-0.91351	
2822.0	0.0	-1.14615	-0.92651	
2823.0	0.0	-1.1543	-0.93439	
2824.0	0.0	-1.16249	-0.94299	
2825.0	0.0	-1.1705	-0.95412	
2826.0	0.0	-1.17879	-0.95691	
2827.0	0.0	-1.18689	-0.96094	
2828.0	0.0	-1.19458	-0.96167	
2829.0	0.0	-1.20204	-0.96698	
2830.0	0.0	-1.20882	-0.97925	
2831.0	0.0	-1.21541	-0.98987	
2832.0	0.0	-1.2231	-0.98877	
2833.0	0.0	-1.23097	-0.9977	
2834.0	0.0	-1.23944	-1.0025	
2835.0	0.0	-1.24878	-1.00342	
2836.0	0.0	-1.25803	-1.00406	
2837.0	0.0	-1.267	-1.00598	
2838.0	0.0	-1.27492	-1.00241	
2839.0	0.0	-1.28275	-0.99728	
2840.0	0.0	-1.28979	-0.99564	
2841.0	0.0	-1.29625	-0.98904	
2842.0	0.0	-1.30289	-0.99445	
2843.0	0.0	-1.30952	-0.98474	
2844.0	0.0	-1.31644	-0.97897	
2845.0	0.0	-1.32367	-0.9743	
2846.0	0.0	-1.33145	-0.96844	
2847.0	0.0	-1.33923	-0.96442	
2848.0	0.0	-1.34779	-0.95471	
2849.0	0.0	-1.3564	-0.95284	
2850.0	0.0	-1.3645	-0.94478	
2851.0	0.0	-1.3721	-0.92725	
2852.0	0.0	-1.37933	-0.91992	
2853.0	0.0	-1.38643	-0.91223	
2854.0	0.0	-1.39288	-0.91388	
2855.0	0.0	-1.39883	-0.89575	
2856.0	0.0	-1.40428	-0.8893	
2857.0	0.0	-1.40941	-0.87959	
2858.0	0.0	-1.41449	-0.85529	
2859.0	0.0	-1.41884	-0.84338	
2860.0	0.0	-1.42365	-0.82901	
2861.0	0.0	-1.42786	-0.81821	
2862.0	0.0	-1.43166	-0.79994	
2863.0	0.0	-1.43541	-0.76923	
2864.0	0.0	-1.43834	-0.74341	
2865.0	0.0	-1.44131	-0.7381	
2866.0	0.0	-1.44296	-0.71265	
2867.0	0.0	-1.44315	-0.69635	
2868.0	0.0	-1.44411	-0.67255	
2869.0	0.0	-1.44498	-0.66119	
2870.0	0.0	-1.44576	-0.65625	
2871.0	0.0	-1.44727	-0.63702	
2872.0	0.0	-1.44951	-0.6145	
2873.0	0.0	-1.45148	-0.59619	
2874.0	0.0	-1.45367	-0.59674	
2875.0	0.0	-1.45541	-0.5755	
2876.0	0.0	-1.45592	-0.55573	
2877.0	0.0	-1.45583	-0.55774	
2878.0	0.0	-1.45564	-0.54419	
2879.0	0.0	-1.45592	-0.5332	
2880.0	0.0	-1.45633	-0.52405	
2881.0	0.0	-1.45679	-0.52185	
2882.0	0.0	-1.45683	-0.50684	
2883.0	0.0	-1.45596	-0.50281	
2884.0	0.0	-1.4556	-0.49054	
2885.0	0.0	-1.45505	-0.48779	
2886.0	0.0	-1.45596	-0.47955	
2887.0	0.0	-1.45633	-0.46106	
2888.0	0.0	-1.45628	-0.45795	
2889.0	0.0	-1.45496	-0.44417	
2890.0	0.0	-1.4528	-0.43414	
2891.0	0.0	-1.44937	-0.43304	
2892.0	0.0	-1.44594	-0.42279	
2893.0	0.0	-1.442	-0.41968	
2894.0	0.0	-1.43825	-0.41693	
2895.0	0.0	-1.43468	-0.40869	
2896.0	0.0	-1.43202	-0.39111	
2897.0	0.0	-1.42882	-0.37885	
2898.0	0.0	-1.42516	-0.38406	
2899.0	0.0	-1.41948	-0.36035	
2900.0	0.0	-1.41312	-0.36475	
2901.0	0.0	-1.40552	-0.36218	
2902.0	0.0	-1.39764	-0.34607	
2903.0	0.0	-1.3894	-0.34186	
2904.0	0.0	-1.38052	-0.34039	
2905.0	0.0	-1.37032	-0.3241	
2906.0	0.0	-1.3591	-0.32172	
2907.0	0.0	-1.34619	-0.30762	
2908.0	0.0	-1.33292	-0.30414	
2909.0	0.0	-1.319	-0.30798	
2910.0	0.0	-1.30499	-0.30611	
2911.0	0.0	-1.29158	-0.29114	
2912.0	0.0	-1.27826	-0.28107	
2913.0	0.0	-1.26471	-0.28491	
2914.0	0.0	-1.25047	-0.29095	
2915.0	0.0	-1.2361	-0.28271	
2916.0	0.0	-1.22195	-0.28674	
2917.0	0.0	-1.20886	-0.27191	
2918.0	0.0	-1.19705	-0.27823	
2919.0	0.0	-1.18652	-0.25323	
2920.0	0.0	-1.17714	-0.25983	
2921.0	0.0	-1.16739	-0.24957	
2922.0	0.0	-1.15714	-0.24756	
2923.0	0.0	-1.14569	-0.25909	
2924.0	0.0	-1.13452	-0.23859	
2925.0	0.0	-1.12473	-0.24637	
2926.0	0.0	-1.11639	-0.23291	
2927.0	0.0	-1.10925	-0.22723	
2928.0	0.0	-1.10339	-0.20911	
2929.0	0.0	-1.09717	-0.20032	
2930.0	0.0	-1.09058	-0.19409	
2931.0	0.0	-1.08115	-0.17761	
2932.0	0.0	-1.07172	-0.18347	
2933.0	0.0	-1.06064	-0.16681	
2934.0	0.0	-1.05103	-0.16132	
2935.0	0.0	-1.04132	-0.17413	
2936.0	0.0	-1.03317	-0.16681	
2937.0	0.0	-1.02502	-0.15967	
2938.0	0.0	-1.0166	-0.1507	
2939.0	0.0	-1.00708	-0.13458	
2940.0	0.0	-0.99628	-0.12726	
2941.0	0.0	-0.9841	-0.12286	
2942.0	0.0	-0.97137	-0.1279	
2943.0	0.0	-0.95764	-0.12195	
2944.0	0.0	-0.94427	-0.11407	
2945.0	0.0	-0.93054	-0.10437	
2946.0	0.0	-0.91562	-0.08752	
2947.0	0.0	-0.89969	-0.08679	
2948.0	0.0	-0.88239	-0.07471	
2949.0	0.0	-0.86334	-0.08057	
2950.0	0.0	-0.84467	-0.05914	
2951.0	0.0	-0.82668	-0.06079	
2952.0	0.0	-0.81024	-0.03767	
2953.0	0.0	-0.79486	-0.03699	
2954.0	0.0	-0.7825	-0.03273	
2955.0	0.0	-0.77252	-0.03534	
2956.0	0.0	-0.76593	-0.03369	
2957.0	0.0	-0.763	-0.01831	
2958.0	0.0	-0.76263	-0.02325	
2959.0	0.0	-0.76465	-0.01996	
2960.0	0.0	-0.76611	-0.03699	
2961.0	0.0	-0.76483	-0.04971	
2962.0	0.0	-0.76117	-0.08057	
2963.0	0.0	-0.7533	-0.11993	
2964.0	0.0	-0.74359	-0.15527	
2965.0	0.0	-0.73242	-0.18658	
2966.0	0.0	-0.72107	-0.23071	
2967.0	0.0	-0.70853	-0.2525	
2968.0	0.0	-0.69434	-0.2807	
2969.0	0.0	-0.68005	-0.28162	
2970.0	0.0	-0.6666	-0.25781	
2971.0	0.0	-0.65497	-0.23108	
2972.0	0.0	-0.64307	-0.20947	
2973.0	0.0	-0.63116	-0.16626	
2974.0	0.0	-0.62073	-0.13751	
2975.0	0.0	-0.61011	-0.11829	
2976.0	0.0	-0.59912	-0.10378	
2977.0	0.0	-0.5863	-0.09869	
2978.0	0.0	-0.57166	-0.10016	
2979.0	0.0	-0.55408	-0.10876	
2980.0	0.0	-0.53265	-0.11224	
2981.0	0.0	-0.50574	-0.10208	
2982.0	0.0	-0.47424	-0.10382	
2983.0	0.0	-0.44092	-0.08588	
2984.0	0.0	-0.40723	-0.07004	
2985.0	0.0	-0.37262	-0.04944	
2986.0	0.0	-0.33911	-0.02692	
2987.0	0.0	-0.30688	-0.01117	
2988.0	0.0	-0.27612	0.01849	
2989.0	0.0	-0.24646	0.03827	
2990.0	0.0	-0.21826	0.04504	
2991.0	0.0	-0.19153	0.06006	
2992.0	0.0	-0.16663	0.0791	
2993.0	0.0	-0.14319	0.09485	
2994.0	0.0	-0.12158	0.12726	
2995.0	0.0	-0.10071	0.14667	
2996.0	0.0	-0.0813	0.16791	
2997.0	0.0	-0.06299	0.19794	
2998.0	0.0	-0.04504	0.20966	
2999.0	0.0	-0.02747	0.23364	
3000.0	0.0	-0.01025	0.24051	
3001.0	0.0	0.00732	0.26074	
3002.0	0.0	0.0249	0.271	
3003.0	0.0	0.04358	0.28564	
3004.0	0.0	0.06317	0.28876	
3005.0	0.0	0.0835	0.31421	
3006.0	0.0	0.10382	0.32739	
3007.0	0.0	0.12451	0.33948	
3008.0	0.0	0.14465	0.34607	
3009.0	0.0	0.16425	0.35925	
3010.0	0.0	0.18365	0.36621	
3011.0	0.0	0.20142	0.36346	
3012.0	0.0	0.21808	0.36255	
3013.0	0.0	0.23456	0.36493	
3014.0	0.0	0.25012	0.362	
3015.0	0.0	0.26605	0.35188	
3016.0	0.0	0.28308	0.35188	
3017.0	0.0	0.30103	0.35779	
3018.0	0.0	0.31934	0.35303	
3019.0	0.0	0.34094	0.34607	
3020.0	0.0	0.36108	0.34222	
3021.0	0.0	0.38177	0.32977	
3022.0	0.0	0.4043	0.32666	
3023.0	0.0	0.42773	0.32666	
3024.0	0.0	0.45099	0.31586	
3025.0	0.0	0.47461	0.31604	
3026.0	0.0	0.4975	0.31165	
3027.0	0.0	0.52002	0.30835	
3028.0	0.0	0.54236	0.30688	
3029.0	0.0	0.56598	0.30743	
3030.0	0.0	0.58905	0.30725	
3031.0	0.0	0.61121	0.30853	
3032.0	0.0	0.63428	0.31165	
3033.0	0.0	0.6557	0.31641	
3034.0	0.0	0.67786	0.32153	
3035.0	0.0	0.6991	0.32794	
3036.0	0.0	0.7196	0.33325	
3037.0	0.0	0.73938	0.33801	
3038.0	0.0	0.75824	0.34259	
3039.0	0.0	0.776	0.34387	
3040.0	0.0	0.79248	0.34204	
3041.0	0.0	0.80786	0.34149	
3042.0	0.0	0.82324	0.33911	
3043.0	0.0	0.83716	0.33307	
3044.0	0.0	0.84961	0.33105	
3045.0	0.0	0.86224	0.33371	
3046.0	0.0	0.87396	0.33655	
3047.0	0.0	0.88623	0.34525	
3048.0	0.0	0.89648	0.35156	
3049.0	0.0	0.90857	0.3501	
3050.0	0.0	0.91846	0.35449	
3051.0	0.0	0.93018	0.3598	
3052.0	0.0	0.9408	0.36731	
3053.0	0.0	0.95105	0.36475	
3054.0	0.0	0.96057	0.36804	
3055.0	0.0	0.97009	0.36841	
3056.0	0.0	0.97815	0.37225	
3057.0	0.0	0.98657	0.38104	
3058.0	0.0	0.99426	0.38361	
3059.0	0.0	1.00049	0.39038	
3060.0	0.0	1.00708	0.39551	
3061.0	0.0	1.01184	0.40063	
3062.0	0.0	1.01624	0.4021	
3063.0	0.0	1.02026	0.40247	
3064.0	0.0	1.02502	0.40924	
3065.0	0.0	1.02869	0.40942	
3066.0	0.0	1.03271	0.40887	
3067.0	0.0	1.03748	0.41382	
3068.0	0.0	1.04187	0.41602	
3069.0	0.0	1.04663	0.42261	
3070.0	0.0	1.05048	0.42627	
3071.0	0.0	1.05542	0.43689	
3072.0	0.0	1.05908	0.44348	
3073.0	0.0	1.06311	0.44934	
3074.0	0.0	1.06641	0.44641	
3075.0	0.0	1.0697	0.44971	
3076.0	0.0	1.073	0.4552	
3077.0	0.0	1.07739	0.4585	
3078.0	0.0	1.08179	0.46907	
3079.0	0.0	1.08618	0.46765	
3080.0	0.0	1.09204	0.47186	
3081.0	0.0	1.09753	0.47589	
3082.0	0.0	1.10303	0.47827	
3083.0	0.0	1.11035	0.48816	
3084.0	0.0	1.11658	0.48486	
3085.0	0.0	1.12354	0.48688	
3086.0	0.0	1.13013	0.49457	
3087.0	0.0	1.13525	0.49109	
3088.0	0.0	1.14185	0.49603	
3089.0	0.0	1.14697	0.49823	
3090.0	0.0	1.1521	0.50922	
3091.0	0.0	1.15723	0.50647	
3092.0	0.0	1.16235	0.5072	
3093.0	0.0	1.16675	0.50702	
3094.0	0.0	1.17114	0.50482	
3095.0	0.0	1.1759	0.50409	
3096.0	0.0	1.18066	0.50775	
3097.0	0.0	1.18506	0.50757	
3098.0	0.0	1.19019	0.5083	
3099.0	0.0	1.19421	0.51306	
3100.0	0.0	1.19971	0.51343	
3101.0	0.0	1.20374	0.51782	
3102.0	0.0	1.20886	0.52094	
3103.0	0.0	1.21399	0.52625	
3104.0	0.0	1.21838	0.52185	
3105.0	0.0	1.22388	0.51178	
3106.0	0.0	1.22864	0.5083	
3107.0	0.0	1.23523	0.50665	
3108.0	0.0	1.23999	0.50354	
3109.0	0.0	1.24585	0.48944	
3110.0	0.0	1.25006	0.48248	
3111.0	0.0	1.2561	0.47388	
3112.0	0.0	1.26123	0.46912	
3113.0	0.0	1.26636	0.46692	
3114.0	0.0	1.27258	0.45483	
3115.0	0.0	1.28027	0.45392	
3116.0	0.0	1.28833	0.43231	
3117.0	0.0	1.29639	0.42572	
3118.0	0.0	1.30591	0.41034	
3119.0	0.0	1.31543	0.39148	
3120.0	0.0	1.32495	0.38049	
3121.0	0.0	1.33521	0.36859	
3122.0	0.0	1.34399	0.37006	
3123.0	0.0	1.35242	0.35037	
3124.0	0.0	1.36121	0.32812	
3125.0	0.0	1.36926	0.32593	
3126.0	0.0	1.37677	0.30304	
3127.0	0.0	1.38281	0.28052	
3128.0	0.0	1.3894	0.25983	
3129.0	0.0	1.39545	0.25305	
3130.0	0.0	1.40039	0.25488	
3131.0	0.0	1.40479	0.24316	
3132.0	0.0	1.40881	0.22485	
3133.0	0.0	1.41284	0.21204	
3134.0	0.0	1.41595	0.20123	
3135.0	0.0	1.42126	0.19061	
3136.0	0.0	1.42493	0.17926	
3137.0	0.0	1.42822	0.17358	
3138.0	0.0	1.43115	0.1701	
3139.0	0.0	1.43408	0.1582	
3140.0	0.0	1.43481	0.15125	
3141.0	0.0	1.43555	0.14575	
3142.0	0.0	1.43518	0.14062	
3143.0	0.0	1.43408	0.13037	
3144.0	0.0	1.43427	0.12543	
3145.0	0.0	1.43262	0.11298	
3146.0	0.0	1.43115	0.10181	
3147.0	0.0	1.43005	0.09586	
3148.0	0.0	1.42822	0.08533	
3149.0	0.0	1.42712	0.07764	
3150.0	0.0	1.42529	0.07343	
3151.0	0.0	1.42456	0.04834	
3152.0	0.0	1.42419	0.0434	
3153.0	0.0	1.42456	0.02911	
3154.0	0.0	1.42529	0.00659	
3155.0	0.0	1.42676	0.0119	
3156.0	0.0	1.42896	0.00092	
3157.0	0.0	1.43079	-0.00989	
3158.0	0.0	1.43262	-0.04083	
3159.0	0.0	1.43445	-0.05695	
3160.0	0.0	1.43481	-0.08057	
3161.0	0.0	1.43665	-0.10217	
3162.0	0.0	1.43738	-0.12012	
3163.0	0.0	1.43921	-0.14145	
3164.0	0.0	1.43994	-0.16882	
3165.0	0.0	1.44159	-0.18622	
3166.0	0.0	1.4425	-0.20325	
3167.0	0.0	1.44543	-0.21973	
3168.0	0.0	1.44727	-0.23383	
3169.0	0.0	1.45056	-0.24921	
3170.0	0.0	1.45276	-0.2774	
3171.0	0.0	1.45532	-0.31055	
3172.0	0.0	1.45752	-0.32199	
3173.0	0.0	1.46045	-0.35486	
3174.0	0.0	1.46191	-0.39661	
3175.0	0.0	1.46484	-0.40686	
3176.0	0.0	1.46631	-0.43387	
3177.0	0.0	1.46814	-0.46069	
3178.0	0.0	1.47034	-0.48926	
3179.0	0.0	1.47107	-0.50958	
3180.0	0.0	1.47217	-0.52496	
3181.0	0.0	1.47363	-0.55215	
3182.0	0.0	1.47382	-0.56763	
3183.0	0.0	1.47437	-0.60965	
3184.0	0.0	1.47327	-0.62357	
3185.0	0.0	1.47217	-0.64563	
3186.0	0.0	1.46997	-0.68372	
3187.0	0.0	1.46777	-0.69635	
3188.0	0.0	1.46503	-0.73297	
3189.0	0.0	1.46448	-0.74469	
3190.0	0.0	1.46448	-0.76794	
3191.0	0.0	1.46558	-0.78946	
3192.0	0.0	1.46777	-0.81995	
3193.0	0.0	1.4696	-0.83093	
3194.0	0.0	1.4707	-0.85822	
3195.0	0.0	1.4729	-0.86865	
3196.0	0.0	1.47363	-0.89429	
3197.0	0.0	1.4751	-0.91292	
3198.0	0.0	1.4751	-0.94006	
3199.0	0.0	1.47693	-0.97357	
3200.0	0.0	1.47638	-0.98364	
3201.0	0.0	1.47656	-1.01093	
3202.0	0.0	1.47583	-1.0209	
3203.0	0.0	1.4751	-1.04105	
3204.0	0.0	1.474	-1.05666	
3205.0	0.0	1.47217	-1.07506	
3206.0	0.0	1.4707	-1.09085	
3207.0	0.0	1.46814	-1.11072	
3208.0	0.0	1.46667	-1.13745	
3209.0	0.0	1.46594	-1.15997	
3210.0	0.0	1.46411	-1.17036	
3211.0	0.0	1.46649	-1.18744	
3212.0	0.0	1.46594	-1.20277	
3213.0	0.0	1.46631	-1.23322	
3214.0	0.0	1.46704	-1.24155	
3215.0	0.0	1.46851	-1.24942	
3216.0	0.0	1.46814	-1.26141	
3217.0	0.0	1.46997	-1.27272	
3218.0	0.0	1.4696	-1.2941	
3219.0	0.0	1.4707	-1.30595	
3220.0	0.0	1.47107	-1.30362	
3221.0	0.0	1.47363	-1.31273	
3222.0	0.0	1.47473	-1.33493	
3223.0	0.0	1.47583	-1.33484	
3224.0	0.0	1.47437	-1.33891	
3225.0	0.0	1.47473	-1.35448	
3226.0	0.0	1.47437	-1.3623	
3227.0	0.0	1.47473	-1.36322	
3228.0	0.0	1.4729	-1.37494	
3229.0	0.0	1.47363	-1.38112	
3230.0	0.0	1.47217	-1.38583	
3231.0	0.0	1.47217	-1.39059	
3232.0	0.0	1.47144	-1.39178	
3233.0	0.0	1.4707	-1.39165	
3234.0	0.0	1.46887	-1.39005	
3235.0	0.0	1.46851	-1.38341	
3236.0	0.0	1.46777	-1.38199	
3237.0	0.0	1.46594	-1.38538	
3238.0	0.0	1.46411	-1.38098	
3239.0	0.0	1.46155	-1.39343	
3240.0	0.0	1.45844	-1.38556	
3241.0	0.0	1.45605	-1.38684	
3242.0	0.0	1.45312	-1.39128	
3243.0	0.0	1.45276	-1.37695	
3244.0	0.0	1.45166	-1.37947	
3245.0	0.0	1.45056	-1.3829	
3246.0	0.0	1.44873	-1.38565	
3247.0	0.0	1.44836	-1.37933	
3248.0	0.0	1.44763	-1.38194	
3249.0	0.0	1.44727	-1.37691	
3250.0	0.0	1.4458	-1.37311	
3251.0	0.0	1.44617	-1.35503	
3252.0	0.0	1.44397	-1.35741	
3253.0	0.0	1.44305	-1.34601	
3254.0	0.0	1.44214	-1.34729	
3255.0	0.0	1.44177	-1.33333	
3256.0	0.0	1.43994	-1.34024	
3257.0	0.0	1.44067	-1.33383	
3258.0	0.0	1.43994	-1.33685	
3259.0	0.0	1.44104	-1.34097	
3260.0	0.0	1.44067	-1.3494	
3261.0	0.0	1.44031	-1.35155	
3262.0	0.0	1.44049	-1.36089	
3263.0	0.0	1.44086	-1.37494	
3264.0	0.0	1.43921	-1.37498	
3265.0	0.0	1.43921	-1.39183	
3266.0	0.0	1.43939	-1.38831	
3267.0	0.0	1.44067	-1.39673	
3268.0	0.0	1.44104	-1.3987	
3269.0	0.0	1.4425	-1.39462	
3270.0	0.0	1.44324	-1.38194	
3271.0	0.0	1.4447	-1.38062	
3272.0	0.0	1.4436	-1.38684	
3273.0	0.0	1.44287	-1.38826	
3274.0	0.0	1.44067	-1.39453	
3275.0	0.0	1.43958	-1.40355	
3276.0	0.0	1.43555	-1.40602	
3277.0	0.0	1.43335	-1.40991	
3278.0	0.0	1.43115	-1.42351	
3279.0	0.0	1.42859	-1.42516	
3280.0	0.0	1.42676	-1.42529	
3281.0	0.0	1.42603	-1.41513	
3282.0	0.0	1.42419	-1.41312	
3283.0	0.0	1.42346	-1.41028	
3284.0	0.0	1.42273	-1.4095	
3285.0	0.0	1.42163	-1.41165	
3286.0	0.0	1.42035	-1.41046	
3287.0	0.0	1.41998	-1.41206	
3288.0	0.0	1.4176	-1.42191	
3289.0	0.0	1.41724	-1.40891	
3290.0	0.0	1.41577	-1.40538	
3291.0	0.0	1.41614	-1.4068	
3292.0	0.0	1.41467	-1.39934	
3293.0	0.0	1.41504	-1.38977	
3294.0	0.0	1.41412	-1.38757	
3295.0	0.0	1.41284	-1.38382	
3296.0	0.0	1.41211	-1.39371	
3297.0	0.0	1.41211	-1.38126	
3298.0	0.0	1.4101	-1.38126	
3299.0	0.0	1.40918	-1.37851	
3300.0	0.0	1.40643	-1.38441	
3301.0	0.0	1.40698	-1.37595	
3302.0	0.0	1.40771	-1.3878	
3303.0	0.0	1.40771	-1.39105	
3304.0	0.0	1.40771	-1.40039	
3305.0	0.0	1.40717	-1.41513	
3306.0	0.0	1.40698	-1.41916	
3307.0	0.0	1.40771	-1.41957	
3308.0	0.0	1.40955	-1.41751	
3309.0	0.0	1.41284	-1.42378	
3310.0	0.0	1.41541	-1.41902	
3311.0	0.0	1.4187	-1.40941	
3312.0	0.0	1.4198	-1.40396	
3313.0	0.0	1.42163	-1.40968	
3314.0	0.0	1.42383	-1.41055	
3315.0	0.0	1.42529	-1.41508	
3316.0	0.0	1.42383	-1.41385	
3317.0	0.0	1.42236	-1.41628	
3318.0	0.0	1.41943	-1.42374	
3319.0	0.0	1.41797	-1.42392	
3320.0	0.0	1.41541	-1.42337	
3321.0	0.0	1.41504	-1.42053	
3322.0	0.0	1.41394	-1.41417	
3323.0	0.0	1.41357	-1.41206	
3324.0	0.0	1.41357	-1.40181	
3325.0	0.0	1.41248	-1.40067	
3326.0	0.0	1.40918	-1.39627	
3327.0	0.0	1.40698	-1.38922	
3328.0	0.0	1.40314	-1.39288	
3329.0	0.0	1.39746	-1.38263	
3330.0	0.0	1.39014	-1.37782	
3331.0	0.0	1.38428	-1.37325	
3332.0	0.0	1.37732	-1.37128	
3333.0	0.0	1.37146	-1.3786	
3334.0	0.0	1.36523	-1.36908	
3335.0	0.0	1.35974	-1.36432	
3336.0	0.0	1.3548	-1.37375	
3337.0	0.0	1.35059	-1.3689	
3338.0	0.0	1.34546	-1.36789	
3339.0	0.0	1.34143	-1.38181	
3340.0	0.0	1.3374	-1.37407	
3341.0	0.0	1.33301	-1.3737	
3342.0	0.0	1.32861	-1.37741	
3343.0	0.0	1.32532	-1.37379	
3344.0	0.0	1.32129	-1.38345	
3345.0	0.0	1.31689	-1.38066	
3346.0	0.0	1.31268	-1.36752	
3347.0	0.0	1.30884	-1.36331	
3348.0	0.0	1.30371	-1.35223	
3349.0	0.0	1.30042	-1.34363	
3350.0	0.0	1.29602	-1.34619	
3351.0	0.0	1.29199	-1.32367	
3352.0	0.0	1.2876	-1.32889	
3353.0	0.0	1.28394	-1.30692	
3354.0	0.0	1.27954	-1.30481	
3355.0	0.0	1.27551	-1.30453	
3356.0	0.0	1.27222	-1.29474	
3357.0	0.0	1.27039	-1.28751	
3358.0	0.0	1.26764	-1.28384	
3359.0	0.0	1.26562	-1.28229	
3360.0	0.0	1.26379	-1.27643	
3361.0	0.0	1.26343	-1.27478	
3362.0	0.0	1.26196	-1.28297	
3363.0	0.0	1.26086	-1.26851	
3364.0	0.0	1.2605	-1.26865	
3365.0	0.0	1.25977	-1.25285	
3366.0	0.0	1.25903	-1.2485	
3367.0	0.0	1.25903	-1.23674	
3368.0	0.0	1.25684	-1.23015	
3369.0	0.0	1.2561	-1.22424	
3370.0	0.0	1.25391	-1.21902	
3371.0	0.0	1.25281	-1.2171	
3372.0	0.0	1.25098	-1.2193	
3373.0	0.0	1.25024	-1.21632	
3374.0	0.0	1.24841	-1.21756	
3375.0	0.0	1.24658	-1.2139	
3376.0	0.0	1.24438	-1.22612	
3377.0	0.0	1.24146	-1.21225	
3378.0	0.0	1.23779	-1.21628	
3379.0	0.0	1.23376	-1.20941	
3380.0	0.0	1.2301	-1.21065	
3381.0	0.0	1.22699	-1.21747	
3382.0	0.0	1.22278	-1.20593	
3383.0	0.0	1.21948	-1.2182	
3384.0	0.0	1.21582	-1.20914	
3385.0	0.0	1.21399	-1.21083	
3386.0	0.0	1.21216	-1.22314	
3387.0	0.0	1.20941	-1.22104	
3388.0	0.0	1.20703	-1.22653	
3389.0	0.0	1.2063	-1.2247	
3390.0	0.0	1.20264	-1.23843	
3391.0	0.0	1.20117	-1.22791	
3392.0	0.0	1.19861	-1.23061	
3393.0	0.0	1.19659	-1.23962	
3394.0	0.0	1.1933	-1.2421	
3395.0	0.0	1.19128	-1.24484	
3396.0	0.0	1.1889	-1.24677	
3397.0	0.0	1.18652	-1.25638	
3398.0	0.0	1.18506	-1.24438	
3399.0	0.0	1.18506	-1.24466	
3400.0	0.0	1.18359	-1.24892	
3401.0	0.0	1.18286	-1.24649	
3402.0	0.0	1.1825	-1.25189	
3403.0	0.0	1.18286	-1.24301	
3404.0	0.0	1.1825	-1.2366	
3405.0	0.0	1.18213	-1.24228	
3406.0	0.0	1.17847	-1.23875	
3407.0	0.0	1.1748	-1.23834	
3408.0	0.0	1.17004	-1.23051	
3409.0	0.0	1.16675	-1.2415	
3410.0	0.0	1.16309	-1.23404	
3411.0	0.0	1.16199	-1.23912	
3412.0	0.0	1.16034	-1.23175	
3413.0	0.0	1.16162	-1.23376	
3414.0	0.0	1.16089	-1.23843	
3415.0	0.0	1.16107	-1.24384	
3416.0	0.0	1.15942	-1.23065	
3417.0	0.0	1.15942	-1.23134	
3418.0	0.0	1.15649	-1.23001	
3419.0	0.0	1.1521	-1.22923	
3420.0	0.0	1.14697	-1.22612	
3421.0	0.0	1.14294	-1.22021	
3422.0	0.0	1.13745	-1.22003	
3423.0	0.0	1.13232	-1.20667	
3424.0	0.0	1.12646	-1.20923	
3425.0	0.0	1.12061	-1.20044	
3426.0	0.0	1.11548	-1.1835	
3427.0	0.0	1.11182	-1.17627	
3428.0	0.0	1.10742	-1.17197	
3429.0	0.0	1.10449	-1.16075	
3430.0	0.0	1.10083	-1.16986	
3431.0	0.0	1.099	-1.16267	
3432.0	0.0	1.09644	-1.15517	
3433.0	0.0	1.09497	-1.14711	
3434.0	0.0	1.09277	-1.1326	
3435.0	0.0	1.09131	-1.13196	
3436.0	0.0	1.08893	-1.1272	
3437.0	0.0	1.08856	-1.13658	
3438.0	0.0	1.08636	-1.1239	
3439.0	0.0	1.08545	-1.12161	
3440.0	0.0	1.08289	-1.12738	
3441.0	0.0	1.07922	-1.11223	
3442.0	0.0	1.07538	-1.1076	
3443.0	0.0	1.0719	-1.10165	
3444.0	0.0	1.06732	-1.1022	
3445.0	0.0	1.06384	-1.0946	
3446.0	0.0	1.05853	-1.08907	
3447.0	0.0	1.05396	-1.0882	
3448.0	0.0	1.04736	-1.0995	
3449.0	0.0	1.04388	-1.09552	
3450.0	0.0	1.03931	-1.0817	
3451.0	0.0	1.03638	-1.07607	
3452.0	0.0	1.03308	-1.08325	
3453.0	0.0	1.03125	-1.07451	
3454.0	0.0	1.02905	-1.07721	
3455.0	0.0	1.02722	-1.06403	
3456.0	0.0	1.02466	-1.06142	
3457.0	0.0	1.02246	-1.05373	
3458.0	0.0	1.01953	-1.05991	
3459.0	0.0	1.0177	-1.05432	
3460.0	0.0	1.0144	-1.03436	
3461.0	0.0	1.01184	-1.03098	
3462.0	0.0	1.00928	-1.0394	
3463.0	0.0	1.00635	-1.02837	
3464.0	0.0	1.00287	-1.04132	
3465.0	0.0	1.00085	-1.02576	
3466.0	0.0	0.99719	-1.02301	
3467.0	0.0	0.99646	-1.03116	
3468.0	0.0	0.99573	-1.01733	
3469.0	0.0	0.9939	-1.02383	
3470.0	0.0	0.99261	-1.00813	
3471.0	0.0	0.99261	-1.02063	
3472.0	0.0	0.99023	-1.00983	
3473.0	0.0	0.9895	-1.01074	
3474.0	0.0	0.98804	-1.01212	
3475.0	0.0	0.98657	-0.99051	
3476.0	0.0	0.98364	-0.98318	
3477.0	0.0	0.98145	-0.9765	
3478.0	0.0	0.97815	-0.97169	
3479.0	0.0	0.97778	-0.97339	
3480.0	0.0	0.97595	-0.97334	
3481.0	0.0	0.97595	-0.95682	
3482.0	0.0	0.97504	-0.95357	
3483.0	0.0	0.97559	-0.9538	
3484.0	0.0	0.97485	-0.95526	
3485.0	0.0	0.97559	-0.94711	
3486.0	0.0	0.97632	-0.93613	
3487.0	0.0	0.97852	-0.93036	
3488.0	0.0	0.98071	-0.92981	
3489.0	0.0	0.98364	-0.91965	
3490.0	0.0	0.98657	-0.905	
3491.0	0.0	0.98932	-0.89584	
3492.0	0.0	0.99023	-0.89795	
3493.0	0.0	0.9917	-0.87469	
3494.0	0.0	0.99097	-0.86563	
3495.0	0.0	0.9917	-0.86948	
3496.0	0.0	0.98987	-0.85126	
3497.0	0.0	0.98785	-0.84229	
3498.0	0.0	0.98529	-0.83734	
3499.0	0.0	0.98364	-0.83853	
3500.0	0.0	0.98108	-0.83405	
3501.0	0.0	0.97961	-0.81885	
3502.0	0.0	0.97522	-0.81061	
3503.0	0.0	0.97266	-0.81024	
3504.0	0.0	0.96826	-0.81519	
3505.0	0.0	0.96423	-0.80255	
3506.0	0.0	0.95874	-0.80447	
3507.0	0.0	0.95581	-0.79596	
3508.0	0.0	0.95105	-0.78223	
3509.0	0.0	0.94775	-0.78168	
3510.0	0.0	0.94244	-0.77692	
3511.0	0.0	0.93713	-0.77174	
3512.0	0.0	0.93237	-0.75311	
3513.0	0.0	0.92798	-0.75948	
3514.0	0.0	0.92285	-0.75018	
3515.0	0.0	0.91882	-0.74176	
3516.0	0.0	0.9126	-0.74414	
3517.0	0.0	0.90784	-0.73279	
3518.0	0.0	0.90198	-0.72656	
3519.0	0.0	0.89758	-0.71315	
3520.0	0.0	0.89209	-0.72601	
3521.0	0.0	0.88733	-0.71045	
3522.0	0.0	0.88074	-0.70514	
3523.0	0.0	0.87598	-0.69868	
3524.0	0.0	0.86938	-0.70514	
3525.0	0.0	0.86609	-0.69827	
3526.0	0.0	0.86133	-0.68234	
3527.0	0.0	0.85767	-0.68811	
3528.0	0.0	0.85254	-0.67914	
3529.0	0.0	0.84924	-0.67383	
3530.0	0.0	0.84521	-0.67346	
3531.0	0.0	0.84302	-0.67108	
3532.0	0.0	0.83936	-0.66669	
3533.0	0.0	0.83826	-0.65643	
3534.0	0.0	0.83423	-0.64888	
3535.0	0.0	0.8324	-0.64178	
3536.0	0.0	0.82764	-0.63208	
3537.0	0.0	0.82507	-0.63171	
3538.0	0.0	0.82031	-0.63318	
3539.0	0.0	0.81683	-0.6221	
3540.0	0.0	0.81189	-0.63419	
3541.0	0.0	0.80804	-0.62604	
3542.0	0.0	0.80383	-0.63007	
3543.0	0.0	0.80017	-0.61826	
3544.0	0.0	0.79614	-0.61652	
3545.0	0.0	0.79248	-0.60864	
3546.0	0.0	0.78918	-0.60919	
3547.0	0.0	0.78662	-0.60841	
3548.0	0.0	0.78296	-0.60654	
3549.0	0.0	0.78076	-0.6004	
3550.0	0.0	0.7782	-0.59976	
3551.0	0.0	0.77728	-0.5956	
3552.0	0.0	0.77527	-0.58923	
3553.0	0.0	0.7749	-0.5896	
3554.0	0.0	0.77307	-0.5874	
3555.0	0.0	0.77197	-0.5874	
3556.0	0.0	0.77014	-0.58163	
3557.0	0.0	0.76904	-0.58301	
3558.0	0.0	0.76575	-0.58521	
3559.0	0.0	0.76392	-0.57568	
3560.0	0.0	0.76062	-0.58502	
3561.0	0.0	0.75989	-0.58722	
3562.0	0.0	0.75824	-0.57733	
3563.0	0.0	0.75806	-0.57184	
3564.0	0.0	0.75714	-0.58282	
3565.0	0.0	0.75714	-0.56287	
3566.0	0.0	0.75659	-0.57532	
3567.0	0.0	0.75732	-0.57367	
3568.0	0.0	0.75769	-0.55902	
3569.0	0.0	0.76099	-0.57111	
3570.0	0.0	0.7619	-0.56369	
3571.0	0.0	0.76465	-0.56012	
3572.0	0.0	0.76575	-0.56305	
3573.0	0.0	0.76831	-0.5484	
3574.0	0.0	0.76904	-0.5408	
3575.0	0.0	0.77014	-0.54529	
3576.0	0.0	0.76978	-0.53	
3577.0	0.0	0.76959	-0.52277	
3578.0	0.0	0.76794	-0.51544	
3579.0	0.0	0.76758	-0.51663	
3580.0	0.0	0.76501	-0.52496	
3581.0	0.0	0.76392	-0.51837	
3582.0	0.0	0.76099	-0.5202	
3583.0	0.0	0.75879	-0.52405	
3584.0	0.0	0.7533	-0.51324	
3585.0	0.0	0.74963	-0.498	
3586.0	0.0	0.74451	-0.4964	
3587.0	0.0	0.74121	-0.49658	
3588.0	0.0	0.73462	-0.4823	
3589.0	0.0	0.72968	-0.48981	
3590.0	0.0	0.72363	-0.48779	
3591.0	0.0	0.7196	-0.48468	
3592.0	0.0	0.71448	-0.49475	
3593.0	0.0	0.70972	-0.48756	
3594.0	0.0	0.70459	-0.48981	
3595.0	0.0	0.70038	-0.48395	
3596.0	0.0	0.6958	-0.47845	
3597.0	0.0	0.6936	-0.48834	
3598.0	0.0	0.68884	-0.4801	
3599.0	0.0	0.68536	-0.47708	
3600.0	0.0	0.68005	-0.47131	
3601.0	0.0	0.67603	-0.48413	
3602.0	0.0	0.6709	-0.47644	
3603.0	0.0	0.66779	-0.47571	
3604.0	0.0	0.66193	-0.48138	
3605.0	0.0	0.65845	-0.47058	
3606.0	0.0	0.65405	-0.46692	
3607.0	0.0	0.65002	-0.47104	
3608.0	0.0	0.64453	-0.47955	
3609.0	0.0	0.64032	-0.48212	
3610.0	0.0	0.63519	-0.48367	
3611.0	0.0	0.63245	-0.48541	
3612.0	0.0	0.62732	-0.4823	
3613.0	0.0	0.62476	-0.4975	
3614.0	0.0	0.62183	-0.50922	
3615.0	0.0	0.62109	-0.50647	
3616.0	0.0	0.61963	-0.51398	
3617.0	0.0	0.62	-0.52606	
3618.0	0.0	0.62054	-0.52286	
3619.0	0.0	0.62256	-0.53577	
3620.0	0.0	0.62347	-0.53467	
3621.0	0.0	0.62622	-0.5387	
3622.0	0.0	0.62732	-0.55106	
3623.0	0.0	0.62988	-0.55591	
3624.0	0.0	0.63062	-0.55646	
3625.0	0.0	0.63245	-0.5636	
3626.0	0.0	0.63354	-0.57733	
3627.0	0.0	0.63538	-0.57184	
3628.0	0.0	0.63611	-0.57605	
3629.0	0.0	0.63831	-0.57642	
3630.0	0.0	0.63977	-0.57816	
3631.0	0.0	0.6427	-0.57861	
3632.0	0.0	0.64362	-0.58502	
3633.0	0.0	0.6438	-0.57967	
3634.0	0.0	0.6405	-0.57838	
3635.0	0.0	0.63831	-0.58136	
3636.0	0.0	0.63336	-0.58228	
3637.0	0.0	0.62878	-0.57587	
3638.0	0.0	0.62256	-0.58612	
3639.0	0.0	0.61926	-0.58072	
3640.0	0.0	0.61597	-0.58228	
3641.0	0.0	0.61304	-0.57605	
3642.0	0.0	0.60974	-0.58987	
3643.0	0.0	0.60828	-0.58722	
3644.0	0.0	0.60571	-0.57623	
3645.0	0.0	0.60645	-0.5788	
3646.0	0.0	0.60736	-0.57056	
3647.0	0.0	0.60938	-0.5874	
3648.0	0.0	0.61047	-0.58539	
3649.0	0.0	0.6123	-0.57678	
3650.0	0.0	0.61285	-0.57642	
3651.0	0.0	0.61487	-0.56543	
3652.0	0.0	0.61487	-0.54382	
3653.0	0.0	0.6167	-0.53723	
3654.0	0.0	0.61615	-0.5365	
3655.0	0.0	0.6156	-0.53851	
3656.0	0.0	0.6134	-0.52441	
3657.0	0.0	0.61194	-0.53156	
3658.0	0.0	0.60864	-0.5343	
3659.0	0.0	0.60791	-0.52643	
3660.0	0.0	0.6059	-0.5202	
3661.0	0.0	0.60571	-0.51508	
3662.0	0.0	0.60352	-0.51105	
3663.0	0.0	0.60278	-0.50317	
3664.0	0.0	0.59967	-0.49512	
3665.0	0.0	0.59729	-0.49969	
3666.0	0.0	0.5918	-0.49731	
3667.0	0.0	0.58667	-0.48779	
3668.0	0.0	0.58044	-0.48624	
3669.0	0.0	0.57642	-0.48413	
3670.0	0.0	0.57166	-0.4823	
3671.0	0.0	0.56982	-0.48523	
3672.0	0.0	0.56671	-0.48138	
3673.0	0.0	0.56506	-0.48761	
3674.0	0.0	0.56287	-0.479	
3675.0	0.0	0.56177	-0.48734	
3676.0	0.0	0.55957	-0.48358	
3677.0	0.0	0.55811	-0.47589	
3678.0	0.0	0.55444	-0.47552	
3679.0	0.0	0.55078	-0.46454	
3680.0	0.0	0.54529	-0.46783	
3681.0	0.0	0.53925	-0.46564	
3682.0	0.0	0.53174	-0.45886	
3683.0	0.0	0.52661	-0.47369	
3684.0	0.0	0.52222	-0.46729	
3685.0	0.0	0.51929	-0.47241	
3686.0	0.0	0.51562	-0.47754	
3687.0	0.0	0.51379	-0.48212	
3688.0	0.0	0.51123	-0.48669	
3689.0	0.0	0.5105	-0.49072	
3690.0	0.0	0.50903	-0.49695	
3691.0	0.0	0.50793	-0.50446	
3692.0	0.0	0.50482	-0.50281	
3693.0	0.0	0.50244	-0.50281	
3694.0	0.0	0.49951	-0.51031	
3695.0	0.0	0.4975	-0.51398	
3696.0	0.0	0.49329	-0.51947	
3697.0	0.0	0.49072	-0.52364	
3698.0	0.0	0.48779	-0.5343	
3699.0	0.0	0.4856	-0.53284	
3700.0	0.0	0.48303	-0.54208	
3701.0	0.0	0.48212	-0.5365	
3702.0	0.0	0.4801	-0.54767	
3703.0	0.0	0.48047	-0.54547	
3704.0	0.0	0.47809	-0.54913	
3705.0	0.0	0.47772	-0.54272	
3706.0	0.0	0.47534	-0.54474	
3707.0	0.0	0.47424	-0.53943	
3708.0	0.0	0.47131	-0.54785	
3709.0	0.0	0.46875	-0.54272	
3710.0	0.0	0.46436	-0.53192	
3711.0	0.0	0.46124	-0.51691	
3712.0	0.0	0.45667	-0.51746	
3713.0	0.0	0.45447	-0.51283	
3714.0	0.0	0.45062	-0.50739	
3715.0	0.0	0.44861	-0.50281	
3716.0	0.0	0.44568	-0.50281	
3717.0	0.0	0.44385	-0.48752	
3718.0	0.0	0.44238	-0.48047	
3719.0	0.0	0.44312	-0.46344	
3720.0	0.0	0.44403	-0.4585	
3721.0	0.0	0.44568	-0.44696	
3722.0	0.0	0.44751	-0.44659	
3723.0	0.0	0.45007	-0.43359	
3724.0	0.0	0.45227	-0.43231	
3725.0	0.0	0.45557	-0.41794	
3726.0	0.0	0.45758	-0.40686	
3727.0	0.0	0.46179	-0.39111	
3728.0	0.0	0.46545	-0.3869	
3729.0	0.0	0.46985	-0.37775	
3730.0	0.0	0.47278	-0.37646	
3731.0	0.0	0.47717	-0.36566	
3732.0	0.0	0.47992	-0.35651	
3733.0	0.0	0.48413	-0.35797	
3734.0	0.0	0.48816	-0.34406	
3735.0	0.0	0.49402	-0.33545	
3736.0	0.0	0.49878	-0.32483	
3737.0	0.0	0.50391	-0.32263	
3738.0	0.0	0.5072	-0.30469	
3739.0	0.0	0.5105	-0.29535	
3740.0	0.0	0.51123	-0.28015	
3741.0	0.0	0.51123	-0.27589	
3742.0	0.0	0.50977	-0.25928	
3743.0	0.0	0.50977	-0.2579	
3744.0	0.0	0.50977	-0.24829	
3745.0	0.0	0.51123	-0.23291	
3746.0	0.0	0.51288	-0.23383	
3747.0	0.0	0.51672	-0.23122	
3748.0	0.0	0.51947	-0.2157	
3749.0	0.0	0.52368	-0.20508	
3750.0	0.0	0.52643	-0.1972	
3751.0	0.0	0.52991	-0.17661	
3752.0	0.0	0.53284	-0.1723	
3753.0	0.0	0.5376	-0.15729	
3754.0	0.0	0.54199	-0.15381	
3755.0	0.0	0.54767	-0.14557	
3756.0	0.0	0.55151	-0.13815	
3757.0	0.0	0.55774	-0.12067	
3758.0	0.0	0.56287	-0.11224	
3759.0	0.0	0.56982	-0.10382	
3760.0	0.0	0.57568	-0.10345	
3761.0	0.0	0.58411	-0.09375	
3762.0	0.0	0.59143	-0.07965	
3763.0	0.0	0.59949	-0.07745	
3764.0	0.0	0.60535	-0.07544	
3765.0	0.0	0.61285	-0.052	
3766.0	0.0	0.6178	-0.04303	
3767.0	0.0	0.62292	-0.02271	
3768.0	0.0	0.62732	-0.00549	
3769.0	0.0	0.63391	0.01318	
3770.0	0.0	0.63831	0.03076	
3771.0	0.0	0.64325	0.05237	
3772.0	0.0	0.64691	0.07114	
3773.0	0.0	0.65149	0.09229	
3774.0	0.0	0.65332	0.11206	
3775.0	0.0	0.65698	0.12854	
3776.0	0.0	0.65955	0.14319	
3777.0	0.0	0.66302	0.16571	
3778.0	0.0	0.66431	0.18402	
3779.0	0.0	0.66833	0.19629	
3780.0	0.0	0.66925	0.21478	
3781.0	0.0	0.67163	0.23419	
3782.0	0.0	0.67053	0.25177	
3783.0	0.0	0.6709	0.27136	
3784.0	0.0	0.66852	0.28857	
3785.0	0.0	0.66833	0.30496	
3786.0	0.0	0.66797	0.32117	
3787.0	0.0	0.66943	0.3349	
3788.0	0.0	0.67035	0.34644	
3789.0	0.0	0.67181	0.35577	
3790.0	0.0	0.67053	0.36603	
3791.0	0.0	0.67163	0.37775	
3792.0	0.0	0.672	0.38544	
3793.0	0.0	0.67419	0.39771	
3794.0	0.0	0.67456	0.40796	
3795.0	0.0	0.67712	0.42004	
3796.0	0.0	0.67859	0.42993	
3797.0	0.0	0.68188	0.44623	
3798.0	0.0	0.68372	0.45813	
3799.0	0.0	0.68573	0.46802	
3800.0	0.0	0.685	0.47498	
3801.0	0.0	0.685	0.48157	
3802.0	0.0	0.68298	0.4823	
3803.0	0.0	0.68115	0.48853	
3804.0	0.0	0.67712	0.49603	
3805.0	0.0	0.67548	0.50775	
3806.0	0.0	0.6731	0.51562	
3807.0	0.0	0.67236	0.52478	
3808.0	0.0	0.67017	0.53247	
3809.0	0.0	0.6698	0.54108	
3810.0	0.0	0.66888	0.55042	
3811.0	0.0	0.66888	0.55389	
3812.0	0.0	0.66797	0.56868	
3813.0	0.0	0.66724	0.58026	
3814.0	0.0	0.66486	0.59161	
3815.0	0.0	0.66302	0.6048	
3816.0	0.0	0.66101	0.61688	
3817.0	0.0	0.66046	0.63226	
3818.0	0.0	0.65918	0.64485	
3819.0	0.0	0.65845	0.65918	
3820.0	0.0	0.65607	0.66229	
3821.0	0.0	0.65515	0.67932	
3822.0	0.0	0.65222	0.68701	
3823.0	0.0	0.65076	0.69617	
3824.0	0.0	0.64819	0.70715	
3825.0	0.0	0.6449	0.71887	
3826.0	0.0	0.64197	0.72748	
3827.0	0.0	0.6394	0.73828	
3828.0	0.0	0.63647	0.73627	
3829.0	0.0	0.63354	0.7522	
3830.0	0.0	0.62769	0.7576	
3831.0	0.0	0.62439	0.7619	
3832.0	0.0	0.61816	0.76172	
3833.0	0.0	0.61377	0.76721	
3834.0	0.0	0.60736	0.76849	
3835.0	0.0	0.60242	0.77087	
3836.0	0.0	0.59473	0.77179	
3837.0	0.0	0.58997	0.77637	
3838.0	0.0	0.58301	0.78204	
3839.0	0.0	0.57843	0.78369	
3840.0	0.0	0.57074	0.78548	
3841.0	0.0	0.56689	0.78058	
3842.0	0.0	0.5603	0.78625	
3843.0	0.0	0.55444	0.78571	
3844.0	0.0	0.54895	0.7804	
3845.0	0.0	0.54309	0.78076	
3846.0	0.0	0.5365	0.77435	
3847.0	0.0	0.52991	0.76538	
3848.0	0.0	0.52222	0.76318	
3849.0	0.0	0.51489	0.75769	
3850.0	0.0	0.5061	0.75439	
3851.0	0.0	0.49841	0.75256	
3852.0	0.0	0.48926	0.74011	
3853.0	0.0	0.48083	0.75	
3854.0	0.0	0.47168	0.75696	
3855.0	0.0	0.46362	0.75989	
3856.0	0.0	0.45374	0.7597	
3857.0	0.0	0.44623	0.76044	
3858.0	0.0	0.43945	0.75842	
3859.0	0.0	0.43359	0.75806	
3860.0	0.0	0.427	0.76245	
3861.0	0.0	0.42169	0.76501	
3862.0	0.0	0.41602	0.76154	
3863.0	0.0	0.41272	0.76721	
3864.0	0.0	0.40906	0.77197	
3865.0	0.0	0.40723	0.77692	
3866.0	0.0	0.40448	0.77856	
3867.0	0.0	0.40302	0.77216	
3868.0	0.0	0.40027	0.79047	
3869.0	0.0	0.39844	0.8031	
3870.0	0.0	0.39569	0.80823	
3871.0	0.0	0.39258	0.82489	
3872.0	0.0	0.38745	0.82544	
3873.0	0.0	0.38159	0.84686	
3874.0	0.0	0.37207	0.84833	
3875.0	0.0	0.362	0.85565	
3876.0	0.0	0.349	0.86206	
3877.0	0.0	0.33545	0.87305	
3878.0	0.0	0.31787	0.86353	
3879.0	0.0	0.29956	0.89095	
3880.0	0.0	0.2774	0.90784	
3881.0	0.0	0.25488	0.92889	
3882.0	0.0	0.23035	0.95251	
3883.0	0.0	0.20544	0.98438	
3884.0	0.0	0.17917	1.01056	
3885.0	0.0	0.15344	1.03564	
3886.0	0.0	0.12524	1.06256	
3887.0	0.0	0.09705	1.09241	
3888.0	0.0	0.06775	1.09094	
3889.0	0.0	0.04047	1.13892	
3890.0	0.0	0.01172	1.14459	
3891.0	0.0	-0.01575	1.17664	
3892.0	0.0	-0.04486	1.19513	
3893.0	0.0	-0.07178	1.21289	
3894.0	0.0	-0.09943	1.22974	
3895.0	0.0	-0.12561	1.24457	
3896.0	0.0	-0.15234	1.25519	
3897.0	0.0	-0.17834	1.27441	
3898.0	0.0	-0.20563	1.28412	
3899.0	0.0	-0.23254	1.2876	
3900.0	0.0	-0.26102	1.26508	
3901.0	0.0	-0.28903	1.28027	
3902.0	0.0	-0.31952	1.27075	
3903.0	0.0	-0.34937	1.2713	
3904.0	0.0	-0.38086	1.25592	
3905.0	0.0	-0.41107	1.26581	
3906.0	0.0	-0.4411	1.25793	
3907.0	0.0	-0.46902	1.2572	
3908.0	0.0	-0.4975	1.25812	
3909.0	0.0	-0.52441	1.27094	
3910.0	0.0	-0.55298	1.27258	
3911.0	0.0	-0.57971	1.2843	
3912.0	0.0	-0.60809	1.2951	
3913.0	0.0	-0.63464	1.30609	
3914.0	0.0	-0.66339	1.31049	
3915.0	0.0	-0.69031	1.29822	
3916.0	0.0	-0.71851	1.31378	
3917.0	0.0	-0.74515	1.30627	
3918.0	0.0	-0.77197	1.29913	
3919.0	0.0	-0.79742	1.29364	
3920.0	0.0	-0.82361	1.28229	
3921.0	0.0	-0.84869	1.28284	
3922.0	0.0	-0.87488	1.28467	
3923.0	0.0	-0.89941	1.27881	
3924.0	0.0	-0.925	1.26746	
3925.0	0.0	-0.94839	1.25574	
3926.0	0.0	-0.97211	1.25061	
3927.0	0.0	-0.99298	1.23505	
3928.0	0.0	-1.01331	1.22626	
3929.0	0.0	-1.03011	1.21436	
3930.0	0.0	-1.04745	1.19563	
3931.0	0.0	-1.06329	1.18689	
3932.0	0.0	-1.08064	1.17389	
3933.0	0.0	-1.09552	1.15466	
3934.0	0.0	-1.11108	1.13177	
3935.0	0.0	-1.12354	1.10623	
3936.0	0.0	-1.13544	1.06805	
3937.0	0.0	-1.14505	1.06256	
3938.0	0.0	-1.15558	1.04132	
3939.0	0.0	-1.16391	1.0166	
3940.0	0.0	-1.1727	0.98804	
3941.0	0.0	-1.17975	0.93768	
3942.0	0.0	-1.18826	0.95142	
3943.0	0.0	-1.19467	0.94244	
3944.0	0.0	-1.20245	0.91992	
3945.0	0.0	-1.20859	0.91077	
3946.0	0.0	-1.21637	0.88971	
3947.0	0.0	-1.22237	0.87909	
3948.0	0.0	-1.22997	0.86554	
3949.0	0.0	-1.23683	0.8584	
3950.0	0.0	-1.24571	0.82233	
3951.0	0.0	-1.25441	0.85107	
3952.0	0.0	-1.2648	0.82379	
3953.0	0.0	-1.27464	0.85876	
3954.0	0.0	-1.28595	0.87149	
3955.0	0.0	-1.2957	0.86829	
3956.0	0.0	-1.30714	0.87708	
3957.0	0.0	-1.31726	0.87781	
3958.0	0.0	-1.32788	0.87708	
3959.0	0.0	-1.33713	0.88184	
3960.0	0.0	-1.34656	0.87744	
3961.0	0.0	-1.35434	0.88568	
3962.0	0.0	-1.36299	0.89095	
3963.0	0.0	-1.36908	0.87543	
3964.0	0.0	-1.37608	0.87012	
3965.0	0.0	-1.38126	0.91809	
3966.0	0.0	-1.38757	0.92725	
3967.0	0.0	-1.39279	0.93915	
3968.0	0.0	-1.39874	0.95105	
3969.0	0.0	-1.40414	0.96126	
3970.0	0.0	-1.4095	0.97064	
3971.0	0.0	-1.41435	0.98254	
3972.0	0.0	-1.41911	0.99051	
3973.0	0.0	-1.42337	0.99609	
3974.0	0.0	-1.42772	1.00452	
3975.0	0.0	-1.43138	0.98346	
3976.0	0.0	-1.43504	1.01093	
3977.0	0.0	-1.43793	1.01715	
3978.0	0.0	-1.44145	1.02136	
3979.0	0.0	-1.44392	1.0155	
3980.0	0.0	-1.44681	1.02649	
3981.0	0.0	-1.44859	1.01953	
3982.0	0.0	-1.45148	1.0166	
3983.0	0.0	-1.45253	1.02118	
3984.0	0.0	-1.45505	1.01985	
3985.0	0.0	-1.45605	1.00891	
3986.0	0.0	-1.45789	0.99976	
3987.0	0.0	-1.45734	0.99847	
3988.0	0.0	-1.4572	0.96497	
3989.0	0.0	-1.45583	0.96899	
3990.0	0.0	-1.4561	0.95343	
3991.0	0.0	-1.45555	0.95197	
3992.0	0.0	-1.45715	0.94281	
3993.0	0.0	-1.4577	0.93585	
3994.0	0.0	-1.45981	0.92725	
3995.0	0.0	-1.46031	0.91736	
3996.0	0.0	-1.46265	0.89081	
3997.0	0.0	-1.46388	0.90894	
3998.0	0.0	-1.46617	0.90564	
3999.0	0.0	-1.4664	0.90216	
4000.0	0.0	-1.46832	0.89722	
4001.0	0.0	-1.46873	0.88824	
4002.0	0.0	-1.47061	0.87671	
4003.0	0.0	-1.47047	0.87854	
4004.0	0.0	-1.47185	0.87561	
4005.0	0.0	-1.4718	0.8714	
4006.0	0.0	-1.4734	0.87231	
4007.0	0.0	-1.47404	0.87469	
4008.0	0.0	-1.47565	0.87396	
4009.0	0.0	-1.47588	0.87012	
4010.0	0.0	-1.47729	0.86719	
4011.0	0.0	-1.47697	0.8681	
4012.0	0.0	-1.47835	0.8616	
4013.0	0.0	-1.47807	0.84961	
4014.0	0.0	-1.47935	0.85437	
4015.0	0.0	-1.4794	0.854	
4016.0	0.0	-1.48077	0.86014	
4017.0	0.0	-1.48055	0.86188	
4018.0	0.0	-1.4816	0.85767	
4019.0	0.0	-1.48109	0.86151	
4020.0	0.0	-1.48215	0.85785	
4021.0	0.0	-1.48219	0.8595	
4022.0	0.0	-1.48311	0.85712	
4023.0	0.0	-1.48279	0.86096	
4024.0	0.0	-1.4838	0.85767	
4025.0	0.0	-1.48357	0.83203	
4026.0	0.0	-1.48421	0.85876	
4027.0	0.0	-1.48329	0.82434	
4028.0	0.0	-1.4837	0.86023	
4029.0	0.0	-1.48242	0.8692	
4030.0	0.0	-1.48196	0.86536	
4031.0	0.0	-1.47958	0.87103	
4032.0	0.0	-1.47867	0.87012	
4033.0	0.0	-1.47601	0.86224	
4034.0	0.0	-1.47546	0.87048	
4035.0	0.0	-1.47372	0.87048	
4036.0	0.0	-1.47395	0.86618	
4037.0	0.0	-1.47313	0.85126	
4038.0	0.0	-1.47354	0.86627	
4039.0	0.0	-1.47203	0.87012	
4040.0	0.0	-1.47148	0.86279	
4041.0	0.0	-1.46942	0.86682	
4042.0	0.0	-1.46901	0.86609	
4043.0	0.0	-1.46667	0.86536	
4044.0	0.0	-1.46434	0.86078	
4045.0	0.0	-1.45944	0.85748	
4046.0	0.0	-1.4556	0.85226	
4047.0	0.0	-1.44974	0.84796	
4048.0	0.0	-1.44603	0.84045	
4049.0	0.0	-1.44077	0.82855	
4050.0	0.0	-1.43692	0.83112	
4051.0	0.0	-1.43216	0.82782	
4052.0	0.0	-1.42859	0.81409	
4053.0	0.0	-1.42314	0.81134	
4054.0	0.0	-1.4192	0.8042	
4055.0	0.0	-1.41449	0.80493	
4056.0	0.0	-1.41179	0.80017	
4057.0	0.0	-1.40767	0.79834	
4058.0	0.0	-1.40492	0.78351	
4059.0	0.0	-1.40085	0.79175	
4060.0	0.0	-1.39737	0.78333	
4061.0	0.0	-1.39169	0.77948	
4062.0	0.0	-1.38794	0.77985	
4063.0	0.0	-1.3819	0.763	
4064.0	0.0	-1.37732	0.75146	
4065.0	0.0	-1.37141	0.75696	
4066.0	0.0	-1.36766	0.75806	
4067.0	0.0	-1.36276	0.75458	
4068.0	0.0	-1.35938	0.73334	
4069.0	0.0	-1.35333	0.75183	
4070.0	0.0	-1.34674	0.75128	
4071.0	0.0	-1.3374	0.75018	
4072.0	0.0	-1.32912	0.75032	
4073.0	0.0	-1.31992	0.74927	
4074.0	0.0	-1.31287	0.74048	
4075.0	0.0	-1.30476	0.74744	
4076.0	0.0	-1.29712	0.74597	
4077.0	0.0	-1.28815	0.7467	
4078.0	0.0	-1.28091	0.74139	
4079.0	0.0	-1.27139	0.7478	
4080.0	0.0	-1.26224	0.75027	
4081.0	0.0	-1.25244	0.7511	
4082.0	0.0	-1.24503	0.75494	
4083.0	0.0	-1.23669	0.76025	
4084.0	0.0	-1.23148	0.76373	
4085.0	0.0	-1.22639	0.77051	
4086.0	0.0	-1.22452	0.77106	
4087.0	0.0	-1.22278	0.77124	
4088.0	0.0	-1.2236	0.78351	
4089.0	0.0	-1.22365	0.78625	
4090.0	0.0	-1.22681	0.7879	
4091.0	0.0	-1.2301	0.78241	
4092.0	0.0	-1.23514	0.78864	
4093.0	0.0	-1.23843	0.78516	
4094.0	0.0	-1.2431	0.77344	
4095.0	0.0	-1.24731	0.79449	
4096.0	0.0	-1.25345	0.79688	
4097.0	0.0	-1.25848	0.79834	
4098.0	0.0	-1.26425	0.80054	
4099.0	0.0	-1.26718	0.80658	
4100.0	0.0	-1.27176	0.80603	
4101.0	0.0	-1.27505	0.80273	
4102.0	0.0	-1.27917	0.802	
4103.0	0.0	-1.28156	0.7879	
4104.0	0.0	-1.28412	0.79706	
4105.0	0.0	-1.28503	0.7879	
4106.0	0.0	-1.28682	0.79376	
4107.0	0.0	-1.28673	0.79028	
4108.0	0.0	-1.2876	0.78259	
4109.0	0.0	-1.28622	0.78296	
4110.0	0.0	-1.28618	0.77783	
4111.0	0.0	-1.28499	0.77197	
4112.0	0.0	-1.28522	0.75879	
4113.0	0.0	-1.28412	0.75494	
4114.0	0.0	-1.28366	0.75769	
4115.0	0.0	-1.28265	0.72327	
4116.0	0.0	-1.28339	0.75027	
4117.0	0.0	-1.28302	0.74744	
4118.0	0.0	-1.28416	0.74286	
4119.0	0.0	-1.28348	0.74194	
4120.0	0.0	-1.28467	0.73096	
4121.0	0.0	-1.28467	0.7251	
4122.0	0.0	-1.28595	0.72601	
4123.0	0.0	-1.28627	0.72015	
4124.0	0.0	-1.28833	0.71924	
4125.0	0.0	-1.28851	0.70862	
4126.0	0.0	-1.29053	0.71118	
4127.0	0.0	-1.29108	0.70532	
4128.0	0.0	-1.29282	0.70239	
4129.0	0.0	-1.29346	0.69525	
4130.0	0.0	-1.29565	0.68463	
4131.0	0.0	-1.29556	0.68573	
4132.0	0.0	-1.29707	0.68536	
4133.0	0.0	-1.29593	0.67969	
4134.0	0.0	-1.29373	0.6817	
4135.0	0.0	-1.28796	0.68134	
4136.0	0.0	-1.28027	0.67181	
4137.0	0.0	-1.26814	0.66174	
4138.0	0.0	-1.25555	0.65112	
4139.0	0.0	-1.241	0.64307	
4140.0	0.0	-1.22786	0.63721	
4141.0	0.0	-1.21234	0.62494	
4142.0	0.0	-1.19742	0.61816	
4143.0	0.0	-1.17984	0.60736	
4144.0	0.0	-1.16327	0.60681	
4145.0	0.0	-1.14542	0.6037	
4146.0	0.0	-1.12958	0.5907	
4147.0	0.0	-1.11246	0.57568	
4148.0	0.0	-1.09657	0.58118	
4149.0	0.0	-1.07996	0.59546	
4150.0	0.0	-1.06448	0.59894	
4151.0	0.0	-1.04736	0.5929	
4152.0	0.0	-1.03033	0.58264	
4153.0	0.0	-1.01221	0.58484	
4154.0	0.0	-0.99509	0.57587	
4155.0	0.0	-0.97705	0.57001	
4156.0	0.0	-0.96094	0.56104	
4157.0	0.0	-0.94441	0.55975	
4158.0	0.0	-0.92908	0.54309	
4159.0	0.0	-0.91406	0.54382	
4160.0	0.0	-0.90015	0.55206	
4161.0	0.0	-0.88531	0.54639	
4162.0	0.0	-0.87227	0.51508	
4163.0	0.0	-0.85913	0.50665	
4164.0	0.0	-0.84814	0.52148	
4165.0	0.0	-0.83661	0.49237	
4166.0	0.0	-0.8269	0.5061	
4167.0	0.0	-0.81564	0.49969	
4168.0	0.0	-0.80658	0.49457	
4169.0	0.0	-0.79614	0.48779	
4170.0	0.0	-0.78772	0.47955	
4171.0	0.0	-0.77747	0.46857	
4172.0	0.0	-0.76808	0.44879	
4173.0	0.0	-0.75659	0.44806	
4174.0	0.0	-0.74652	0.44714	
4175.0	0.0	-0.7348	0.42041	
4176.0	0.0	-0.72382	0.43391	
4177.0	0.0	-0.71173	0.42352	
4178.0	0.0	-0.70074	0.40741	
4179.0	0.0	-0.68829	0.40997	
4180.0	0.0	-0.67694	0.39624	
4181.0	0.0	-0.66541	0.39395	
4182.0	0.0	-0.65533	0.3929	
4183.0	0.0	-0.64471	0.37189	
4184.0	0.0	-0.63712	0.38361	
4185.0	0.0	-0.6286	0.37115	
4186.0	0.0	-0.62274	0.37427	
4187.0	0.0	-0.61615	0.37921	
4188.0	0.0	-0.61102	0.36987	
4189.0	0.0	-0.60535	0.37042	
4190.0	0.0	-0.6004	0.36932	
4191.0	0.0	-0.59381	0.36584	
4192.0	0.0	-0.58777	0.36328	
4193.0	0.0	-0.58081	0.36768	
4194.0	0.0	-0.5755	0.36548	
4195.0	0.0	-0.56891	0.3653	
4196.0	0.0	-0.56396	0.35815	
4197.0	0.0	-0.55792	0.35962	
4198.0	0.0	-0.55316	0.36548	
4199.0	0.0	-0.54767	0.35724	
4200.0	0.0	-0.54199	0.35724	
4201.0	0.0	-0.53632	0.36127	
4202.0	0.0	-0.53156	0.36877	
4203.0	0.0	-0.52533	0.36292	
4204.0	0.0	-0.52112	0.35706	
4205.0	0.0	-0.51508	0.35962	
4206.0	0.0	-0.51141	0.37335	
4207.0	0.0	-0.50702	0.3739	
4208.0	0.0	-0.50317	0.37527	
4209.0	0.0	-0.49805	0.3631	
4210.0	0.0	-0.49384	0.36859	
4211.0	0.0	-0.48743	0.3479	
4212.0	0.0	-0.48175	0.36484	
4213.0	0.0	-0.47461	0.3609	
4214.0	0.0	-0.4682	0.36438	
4215.0	0.0	-0.46069	0.36182	
4216.0	0.0	-0.45447	0.36328	
4217.0	0.0	-0.44714	0.35188	
4218.0	0.0	-0.44128	0.35632	
4219.0	0.0	-0.43579	0.34351	
4220.0	0.0	-0.43323	0.3598	
