# OpenSignals Text File Format. Version 1
# {"00:07:80:4B:29:5A": {"position": 0, "device": "biosignalsplux", "device name": "00:07:80:4B:29:5A", "device connection": "/dev/tty.biosignalsplux-Bluetoot", "sampling rate": 100, "resolution": [16, 16], "firmware version": 776, "comments": "", "keywords": "", "mode": 0, "sync interval": 2, "date": "2022-5-4", "time": "16:7:48.873", "channels": [1, 2], "sensor": ["RESPIRATION", "RESPIRATION"], "label": ["CH1", "CH2"], "column": ["nSeq", "DI", "CH1", "CH2"], "special": [{"SpO2": [80, 40, 5, 4, 3, 3]}, {"SpO2": [80, 40, 5, 4, 3, 3]}, {"SpO2": [80, 40, 5, 4, 3, 3]}, {"SpO2": [80, 40, 5, 4, 3, 3]}, {"SpO2": [80, 40, 5, 4, 3, 3]}, {"SpO2": [80, 40, 5, 4, 3, 3]}, {"SpO2": [80, 40, 5, 4, 3, 3]}, {"SpO2": [80, 40, 5, 4, 3, 3]}], "digital IO": [0, 1], "sleeve color": ["red", ""], "convertedValues": 1}}
# EndOfHeader
0.0	0.0	-0.13147	-0.0076	
1.0	0.0	-0.14062	-0.01062	
2.0	0.0	-0.14209	-0.00238	
3.0	0.0	-0.15125	-0.00568	
4.0	0.0	-0.15381	-0.00568	
5.0	0.0	-0.1637	-0.00018	
6.0	0.0	-0.16626	0.00824	
7.0	0.0	-0.17487	0.00513	
8.0	0.0	-0.17523	0.00494	
9.0	0.0	-0.18256	0.0097	
10.0	0.0	-0.18219	0.01337	
11.0	0.0	-0.18915	0.01337	
12.0	0.0	-0.18732	0.01611	
13.0	0.0	-0.19354	0.0097	
14.0	0.0	-0.19116	0.0249	
15.0	0.0	-0.19574	0.01758	
16.0	0.0	-0.19318	0.03406	
17.0	0.0	-0.19812	0.03333	
18.0	0.0	-0.19409	0.03497	
19.0	0.0	-0.19702	0.02985	
20.0	0.0	-0.19006	0.03809	
21.0	0.0	-0.1908	0.03387	
22.0	0.0	-0.18439	0.04504	
23.0	0.0	-0.18787	0.03424	
24.0	0.0	-0.18274	0.0498	
25.0	0.0	-0.18329	0.039	
26.0	0.0	-0.17633	0.04083	
27.0	0.0	-0.17615	0.04358	
28.0	0.0	-0.16699	0.04999	
29.0	0.0	-0.16663	0.03552	
30.0	0.0	-0.15875	0.04871	
31.0	0.0	-0.15857	0.04504	
32.0	0.0	-0.15015	0.05273	
33.0	0.0	-0.14941	0.04047	
34.0	0.0	-0.13989	0.04715	
35.0	0.0	-0.1377	0.05127	
36.0	0.0	-0.12543	0.05438	
37.0	0.0	-0.11902	0.05438	
38.0	0.0	-0.10254	0.06299	
39.0	0.0	-0.09192	0.05164	
40.0	0.0	-0.07397	0.05859	
41.0	0.0	-0.06317	0.06006	
42.0	0.0	-0.04559	0.06665	
43.0	0.0	-0.03662	0.06226	
44.0	0.0	-0.02051	0.07251	
45.0	0.0	-0.01245	0.06537	
46.0	0.0	0.00293	0.07233	
47.0	0.0	0.01007	0.05713	
48.0	0.0	0.02472	0.06903	
49.0	0.0	0.03058	0.06061	
50.0	0.0	0.04413	0.06317	
51.0	0.0	0.04907	0.05658	
52.0	0.0	0.06207	0.06006	
53.0	0.0	0.06592	0.04852	
54.0	0.0	0.07745	0.05603	
55.0	0.0	0.07983	0.04834	
56.0	0.0	0.08899	0.05273	
57.0	0.0	0.08862	0.03937	
58.0	0.0	0.09668	0.05054	
59.0	0.0	0.09668	0.04266	
60.0	0.0	0.10437	0.04285	
61.0	0.0	0.104	0.04138	
62.0	0.0	0.11169	0.04504	
63.0	0.0	0.11133	0.0304	
64.0	0.0	0.11902	0.03937	
65.0	0.0	0.11829	0.0282	
66.0	0.0	0.12579	0.03094	
67.0	0.0	0.12378	0.02161	
68.0	0.0	0.12891	0.02051	
69.0	0.0	0.12488	0.01538	
70.0	0.0	0.12836	0.01923	
71.0	0.0	0.12195	0.00751	
72.0	0.0	0.12268	0.01355	
73.0	0.0	0.11426	0.00421	
74.0	0.0	0.11353	0.00385	
75.0	0.0	0.10254	-0.00513	
76.0	0.0	0.10052	-0.00018	
77.0	0.0	0.09009	-0.01428	
78.0	0.0	0.08954	-0.00916	
79.0	0.0	0.08038	-0.01501	
80.0	0.0	0.08057	-0.01538	
81.0	0.0	0.07178	-0.02312	
82.0	0.0	0.07123	-0.01923	
83.0	0.0	0.06152	-0.02747	
84.0	0.0	0.06097	-0.03076	
85.0	0.0	0.05219	-0.03516	
86.0	0.0	0.05127	-0.03314	
87.0	0.0	0.04156	-0.04358	
88.0	0.0	0.04211	-0.04065	
89.0	0.0	0.03442	-0.05109	
90.0	0.0	0.03589	-0.04962	
91.0	0.0	0.02966	-0.06189	
92.0	0.0	0.03369	-0.06409	
93.0	0.0	0.02966	-0.07159	
94.0	0.0	0.03625	-0.07343	
95.0	0.0	0.03625	-0.08441	
96.0	0.0	0.04633	-0.08441	
97.0	0.0	0.05164	-0.10016	
98.0	0.0	0.06665	-0.10474	
99.0	0.0	0.07581	-0.12305	
100.0	0.0	0.09521	-0.13202	
101.0	0.0	0.10895	-0.15564	
102.0	0.0	0.1322	-0.16718	
103.0	0.0	0.14832	-0.18768	
104.0	0.0	0.17249	-0.20233	
105.0	0.0	0.18823	-0.22357	
106.0	0.0	0.21387	-0.24005	
107.0	0.0	0.23108	-0.25818	
108.0	0.0	0.25562	-0.27448	
109.0	0.0	0.27283	-0.29929	
110.0	0.0	0.29846	-0.30762	
111.0	0.0	0.31476	-0.32959	
112.0	0.0	0.34003	-0.33691	
113.0	0.0	0.35632	-0.34369	
114.0	0.0	0.37939	-0.35229	
115.0	0.0	0.39478	-0.36804	
116.0	0.0	0.41675	-0.37207	
117.0	0.0	0.43085	-0.37015	
118.0	0.0	0.4541	-0.37408	
119.0	0.0	0.47021	-0.37372	
120.0	0.0	0.49658	-0.3761	
121.0	0.0	0.51581	-0.38434	
122.0	0.0	0.54126	-0.3858	
123.0	0.0	0.55811	-0.38379	
124.0	0.0	0.58502	-0.38708	
125.0	0.0	0.60388	-0.40173	
126.0	0.0	0.62988	-0.40027	
127.0	0.0	0.64966	-0.40869	
128.0	0.0	0.67456	-0.40677	
129.0	0.0	0.69141	-0.40851	
130.0	0.0	0.71484	-0.40714	
131.0	0.0	0.73169	-0.40723	
132.0	0.0	0.75513	-0.40979	
133.0	0.0	0.76978	-0.41968	
134.0	0.0	0.79248	-0.41565	
135.0	0.0	0.8064	-0.42096	
136.0	0.0	0.82764	-0.40668	
137.0	0.0	0.841	-0.40649	
138.0	0.0	0.86353	-0.38086	
139.0	0.0	0.87817	-0.37848	
140.0	0.0	0.89941	-0.37637	
141.0	0.0	0.9137	-0.36548	
142.0	0.0	0.9353	-0.34955	
143.0	0.0	0.94794	-0.35156	
144.0	0.0	0.9668	-0.34003	
145.0	0.0	0.97668	-0.349	
146.0	0.0	0.99243	-0.34479	
147.0	0.0	0.99902	-0.36182	
148.0	0.0	1.01367	-0.35175	
149.0	0.0	1.0166	-0.34918	
150.0	0.0	1.03052	-0.35468	
151.0	0.0	1.03418	-0.35138	
152.0	0.0	1.04626	-0.34131	
153.0	0.0	1.04883	-0.35907	
154.0	0.0	1.06055	-0.35138	
155.0	0.0	1.06274	-0.36108	
156.0	0.0	1.0719	-0.36841	
157.0	0.0	1.07373	-0.36841	
158.0	0.0	1.08508	-0.36932	
159.0	0.0	1.08691	-0.38452	
160.0	0.0	1.09607	-0.36639	
161.0	0.0	1.09515	-0.37976	
162.0	0.0	1.10376	-0.37994	
163.0	0.0	1.1001	-0.36859	
164.0	0.0	1.10706	-0.35687	
165.0	0.0	1.10522	-0.375	
166.0	0.0	1.11145	-0.36072	
167.0	0.0	1.10779	-0.35834	
168.0	0.0	1.11255	-0.34607	
169.0	0.0	1.10449	-0.34918	
170.0	0.0	1.10596	-0.33032	
171.0	0.0	1.09497	-0.34561	
172.0	0.0	1.09131	-0.32391	
173.0	0.0	1.07629	-0.32465	
174.0	0.0	1.06934	-0.31055	
175.0	0.0	1.05176	-0.30414	
176.0	0.0	1.04187	-0.29114	
177.0	0.0	1.02209	-0.28693	
178.0	0.0	1.01074	-0.26715	
179.0	0.0	0.98877	-0.26422	
180.0	0.0	0.97504	-0.25049	
181.0	0.0	0.95032	-0.24792	
182.0	0.0	0.93274	-0.23859	
183.0	0.0	0.90601	-0.25287	
184.0	0.0	0.88715	-0.24573	
185.0	0.0	0.86096	-0.25488	
186.0	0.0	0.84302	-0.24426	
187.0	0.0	0.81812	-0.25671	
188.0	0.0	0.80145	-0.2569	
189.0	0.0	0.77728	-0.26898	
190.0	0.0	0.763	-0.26495	
191.0	0.0	0.74011	-0.28473	
192.0	0.0	0.7251	-0.28912	
193.0	0.0	0.70239	-0.30103	
194.0	0.0	0.68774	-0.29279	
195.0	0.0	0.66431	-0.30615	
196.0	0.0	0.64929	-0.30432	
197.0	0.0	0.62476	-0.31915	
198.0	0.0	0.61011	-0.31567	
199.0	0.0	0.58667	-0.32648	
200.0	0.0	0.57349	-0.34094	
201.0	0.0	0.55188	-0.35596	
202.0	0.0	0.54126	-0.34845	
203.0	0.0	0.52332	-0.35394	
204.0	0.0	0.51489	-0.35779	
205.0	0.0	0.49841	-0.37646	
206.0	0.0	0.48999	-0.37903	
207.0	0.0	0.47296	-0.39917	
208.0	0.0	0.46399	-0.3923	
209.0	0.0	0.44714	-0.39716	
210.0	0.0	0.43945	-0.39624	
211.0	0.0	0.42426	-0.41785	
212.0	0.0	0.41675	-0.41144	
213.0	0.0	0.39954	-0.42719	
214.0	0.0	0.38983	-0.42444	
215.0	0.0	0.37317	-0.42847	
216.0	0.0	0.36438	-0.43469	
217.0	0.0	0.34534	-0.44751	
218.0	0.0	0.33435	-0.45044	
219.0	0.0	0.31787	-0.45538	
220.0	0.0	0.31201	-0.46765	
221.0	0.0	0.30048	-0.47424	
222.0	0.0	0.29663	-0.47644	
223.0	0.0	0.28418	-0.49164	
224.0	0.0	0.27979	-0.49237	
225.0	0.0	0.26843	-0.50995	
226.0	0.0	0.2655	-0.51572	
227.0	0.0	0.25488	-0.52313	
228.0	0.0	0.25342	-0.51947	
229.0	0.0	0.24316	-0.54034	
230.0	0.0	0.24188	-0.53915	
231.0	0.0	0.23181	-0.55627	
232.0	0.0	0.22943	-0.55481	
233.0	0.0	0.21771	-0.55957	
234.0	0.0	0.21533	-0.56863	
235.0	0.0	0.20453	-0.57697	
236.0	0.0	0.20215	-0.57861	
237.0	0.0	0.19043	-0.59326	
238.0	0.0	0.18677	-0.58868	
239.0	0.0	0.17432	-0.59061	
240.0	0.0	0.16882	-0.59912	
241.0	0.0	0.15381	-0.60864	
242.0	0.0	0.14685	-0.59326	
243.0	0.0	0.13293	-0.61249	
244.0	0.0	0.12671	-0.61075	
245.0	0.0	0.11188	-0.61597	
246.0	0.0	0.10254	-0.61487	
247.0	0.0	0.08331	-0.62183	
248.0	0.0	0.07068	-0.61423	
249.0	0.0	0.05072	-0.63446	
250.0	0.0	0.03735	-0.62714	
251.0	0.0	0.01538	-0.64087	
252.0	0.0	0.00037	-0.6405	
253.0	0.0	-0.02344	-0.65039	
254.0	0.0	-0.0401	-0.63812	
255.0	0.0	-0.06537	-0.65021	
256.0	0.0	-0.08423	-0.65002	
257.0	0.0	-0.1106	-0.65909	
258.0	0.0	-0.13074	-0.65607	
259.0	0.0	-0.15857	-0.67081	
260.0	0.0	-0.17963	-0.66504	
261.0	0.0	-0.20837	-0.67511	
262.0	0.0	-0.23071	-0.67767	
263.0	0.0	-0.26147	-0.69104	
264.0	0.0	-0.28528	-0.70239	
265.0	0.0	-0.31677	-0.71805	
266.0	0.0	-0.34149	-0.72455	
267.0	0.0	-0.3728	-0.74551	
268.0	0.0	-0.39423	-0.7576	
269.0	0.0	-0.42169	-0.77783	
270.0	0.0	-0.43835	-0.78845	
271.0	0.0	-0.46124	-0.80804	
272.0	0.0	-0.47443	-0.81775	
273.0	0.0	-0.49503	-0.8335	
274.0	0.0	-0.50592	-0.84686	
275.0	0.0	-0.52332	-0.85941	
276.0	0.0	-0.53247	-0.87122	
277.0	0.0	-0.5495	-0.88751	
278.0	0.0	-0.55847	-0.88953	
279.0	0.0	-0.57678	-0.89978	
280.0	0.0	-0.5885	-0.90564	
281.0	0.0	-0.60773	-0.91937	
282.0	0.0	-0.61963	-0.9202	
283.0	0.0	-0.64032	-0.93018	
284.0	0.0	-0.65396	-0.93494	
285.0	0.0	-0.67493	-0.94643	
286.0	0.0	-0.68811	-0.94638	
287.0	0.0	-0.7077	-0.95801	
288.0	0.0	-0.71915	-0.95398	
289.0	0.0	-0.73682	-0.96497	
290.0	0.0	-0.74661	-0.9684	
291.0	0.0	-0.75879	-0.97559	
292.0	0.0	-0.76227	-0.97522	
293.0	0.0	-0.7684	-0.98882	
294.0	0.0	-0.76447	-0.98584	
295.0	0.0	-0.76291	-0.99353	
296.0	0.0	-0.75146	-0.98561	
297.0	0.0	-0.74332	-0.98758	
298.0	0.0	-0.72501	-0.9809	
299.0	0.0	-0.70862	-0.98126	
300.0	0.0	-0.68225	-0.96899	
301.0	0.0	-0.65918	-0.97394	
302.0	0.0	-0.62823	-0.9646	
303.0	0.0	-0.60201	-0.96497	
304.0	0.0	-0.56946	-0.96039	
305.0	0.0	-0.54218	-0.95673	
306.0	0.0	-0.50793	-0.94528	
307.0	0.0	-0.47855	-0.94318	
308.0	0.0	-0.44312	-0.92706	
309.0	0.0	-0.41345	-0.92267	
310.0	0.0	-0.37903	-0.90491	
311.0	0.0	-0.35083	-0.90326	
312.0	0.0	-0.31842	-0.88641	
313.0	0.0	-0.2926	-0.88458	
314.0	0.0	-0.26202	-0.87735	
315.0	0.0	-0.23804	-0.86902	
316.0	0.0	-0.20947	-0.85822	
317.0	0.0	-0.18713	-0.85602	
318.0	0.0	-0.16077	-0.84375	
319.0	0.0	-0.14026	-0.83963	
320.0	0.0	-0.11646	-0.82942	
321.0	0.0	-0.09888	-0.82352	
322.0	0.0	-0.0769	-0.81885	
323.0	0.0	-0.06134	-0.81519	
324.0	0.0	-0.04211	-0.79962	
325.0	0.0	-0.0293	-0.81006	
326.0	0.0	-0.01282	-0.79816	
327.0	0.0	-0.00275	-0.80045	
328.0	0.0	0.0119	-0.78662	
329.0	0.0	0.02051	-0.77582	
330.0	0.0	0.03406	-0.77371	
331.0	0.0	0.04211	-0.76794	
332.0	0.0	0.05566	-0.75732	
333.0	0.0	0.06409	-0.7533	
334.0	0.0	0.07819	-0.74377	
335.0	0.0	0.08643	-0.73938	
336.0	0.0	0.09888	-0.72995	
337.0	0.0	0.10583	-0.72235	
338.0	0.0	0.1181	-0.71558	
339.0	0.0	0.1236	-0.7251	
340.0	0.0	0.13403	-0.70184	
341.0	0.0	0.13916	-0.71283	
342.0	0.0	0.14905	-0.68884	
343.0	0.0	0.15454	-0.69763	
344.0	0.0	0.16516	-0.67923	
345.0	0.0	0.16919	-0.68536	
346.0	0.0	0.17908	-0.67328	
347.0	0.0	0.18237	-0.67383	
348.0	0.0	0.19043	-0.65314	
349.0	0.0	0.19263	-0.65414	
350.0	0.0	0.20032	-0.65131	
351.0	0.0	0.20215	-0.65085	
352.0	0.0	0.21021	-0.64435	
353.0	0.0	0.21277	-0.64032	
354.0	0.0	0.22083	-0.63354	
355.0	0.0	0.22394	-0.63318	
356.0	0.0	0.23163	-0.62274	
357.0	0.0	0.23364	-0.62787	
358.0	0.0	0.24133	-0.61853	
359.0	0.0	0.24316	-0.61166	
360.0	0.0	0.25104	-0.59793	
361.0	0.0	0.25305	-0.59857	
362.0	0.0	0.26221	-0.582	
363.0	0.0	0.2666	-0.57861	
364.0	0.0	0.27686	-0.56424	
365.0	0.0	0.28015	-0.55994	
366.0	0.0	0.28894	-0.54803	
367.0	0.0	0.29297	-0.54364	
368.0	0.0	0.30066	-0.51782	
369.0	0.0	0.30286	-0.52542	
370.0	0.0	0.31091	-0.50537	
371.0	0.0	0.31311	-0.51508	
372.0	0.0	0.32117	-0.49805	
373.0	0.0	0.32336	-0.5061	
374.0	0.0	0.32922	-0.48834	
375.0	0.0	0.32794	-0.49493	
376.0	0.0	0.33142	-0.48431	
377.0	0.0	0.33087	-0.49988	
378.0	0.0	0.33655	-0.49347	
379.0	0.0	0.33783	-0.49146	
380.0	0.0	0.34387	-0.49292	
381.0	0.0	0.34424	-0.492	
382.0	0.0	0.35046	-0.48193	
383.0	0.0	0.35266	-0.4801	
384.0	0.0	0.36218	-0.44824	
385.0	0.0	0.36621	-0.43945	
386.0	0.0	0.37866	-0.42609	
387.0	0.0	0.38672	-0.41931	
388.0	0.0	0.40063	-0.39038	
389.0	0.0	0.40997	-0.38562	
390.0	0.0	0.4248	-0.35587	
391.0	0.0	0.43469	-0.35861	
392.0	0.0	0.44934	-0.33499	
393.0	0.0	0.45941	-0.32172	
394.0	0.0	0.47406	-0.31201	
395.0	0.0	0.48413	-0.30762	
396.0	0.0	0.49768	-0.29736	
397.0	0.0	0.5061	-0.28308	
398.0	0.0	0.52039	-0.26367	
399.0	0.0	0.52844	-0.26239	
400.0	0.0	0.54053	-0.24811	
401.0	0.0	0.54712	-0.24115	
402.0	0.0	0.55701	-0.23053	
403.0	0.0	0.55957	-0.21771	
404.0	0.0	0.56543	-0.20947	
405.0	0.0	0.56726	-0.19336	
406.0	0.0	0.57422	-0.18695	
407.0	0.0	0.57605	-0.16901	
408.0	0.0	0.58374	-0.15912	
409.0	0.0	0.58667	-0.16553	
410.0	0.0	0.59473	-0.14465	
411.0	0.0	0.59802	-0.14923	
412.0	0.0	0.6059	-0.14172	
413.0	0.0	0.60974	-0.1366	
414.0	0.0	0.61816	-0.12946	
415.0	0.0	0.61926	-0.12817	
416.0	0.0	0.62512	-0.11755	
417.0	0.0	0.62439	-0.12012	
418.0	0.0	0.62805	-0.10217	
419.0	0.0	0.62622	-0.09668	
420.0	0.0	0.6286	-0.08478	
421.0	0.0	0.62622	-0.08606	
422.0	0.0	0.62915	-0.0802	
423.0	0.0	0.62769	-0.08844	
424.0	0.0	0.62988	-0.07727	
425.0	0.0	0.62659	-0.08203	
426.0	0.0	0.62805	-0.07397	
427.0	0.0	0.62476	-0.07361	
428.0	0.0	0.62695	-0.05695	
429.0	0.0	0.62256	-0.05827	
430.0	0.0	0.62585	-0.05273	
431.0	0.0	0.62402	-0.04797	
432.0	0.0	0.62842	-0.03992	
433.0	0.0	0.62988	-0.04449	
434.0	0.0	0.63794	-0.03076	
435.0	0.0	0.64197	-0.0271	
436.0	0.0	0.65076	-0.02124	
437.0	0.0	0.65552	-0.0174	
438.0	0.0	0.66467	-0.00677	
439.0	0.0	0.66779	0.00366	
440.0	0.0	0.67603	0.00421	
441.0	0.0	0.67786	0.01117	
442.0	0.0	0.68481	0.01813	
443.0	0.0	0.68555	0.01428	
444.0	0.0	0.69287	0.02472	
445.0	0.0	0.69727	0.02783	
446.0	0.0	0.70715	0.03882	
447.0	0.0	0.71265	0.04303	
448.0	0.0	0.72308	0.05383	
449.0	0.0	0.73004	0.05658	
450.0	0.0	0.74268	0.06409	
451.0	0.0	0.7511	0.07269	
452.0	0.0	0.76355	0.08368	
453.0	0.0	0.77142	0.09155	
454.0	0.0	0.78369	0.09393	
455.0	0.0	0.7923	0.09576	
456.0	0.0	0.80603	0.11151	
457.0	0.0	0.81445	0.10162	
458.0	0.0	0.82544	0.12433	
459.0	0.0	0.83203	0.11792	
460.0	0.0	0.84137	0.12708	
461.0	0.0	0.84595	0.12286	
462.0	0.0	0.854	0.12634	
463.0	0.0	0.85675	0.12781	
464.0	0.0	0.86243	0.13934	
465.0	0.0	0.86389	0.13504	
466.0	0.0	0.87012	0.14447	
467.0	0.0	0.87231	0.15143	
468.0	0.0	0.88129	0.15417	
469.0	0.0	0.88623	0.16406	
470.0	0.0	0.89539	0.17395	
471.0	0.0	0.90015	0.18127	
472.0	0.0	0.91113	0.19684	
473.0	0.0	0.91736	0.1897	
474.0	0.0	0.92944	0.19666	
475.0	0.0	0.93823	0.19409	
476.0	0.0	0.95142	0.19922	
477.0	0.0	0.9613	0.18782	
478.0	0.0	0.97412	0.18658	
479.0	0.0	0.98291	0.18109	
480.0	0.0	0.99609	0.18365	
481.0	0.0	1.00342	0.16681	
482.0	0.0	1.01587	0.15802	
483.0	0.0	1.02356	0.13586	
484.0	0.0	1.03436	0.13641	
485.0	0.0	1.04297	0.12598	
486.0	0.0	1.05505	0.11151	
487.0	0.0	1.06274	0.10034	
488.0	0.0	1.07812	0.09741	
489.0	0.0	1.09369	0.06921	
490.0	0.0	1.11694	0.06885	
491.0	0.0	1.13818	0.05237	
492.0	0.0	1.15887	0.04871	
493.0	0.0	1.1781	0.0304	
494.0	0.0	1.19604	0.02069	
495.0	0.0	1.21234	0.00513	
496.0	0.0	1.22827	-0.01456	
497.0	0.0	1.24219	-0.00586	
498.0	0.0	1.25684	-0.00952	
499.0	0.0	1.26819	-0.00714	
500.0	0.0	1.28027	0.00256	
501.0	0.0	1.2887	-0.0022	
502.0	0.0	1.29858	0.01538	
503.0	0.0	1.30371	0.02527	
504.0	0.0	1.31287	0.03296	
505.0	0.0	1.31836	0.0553	
506.0	0.0	1.32788	0.06281	
507.0	0.0	1.33337	0.08459	
508.0	0.0	1.3418	0.08148	
509.0	0.0	1.34509	0.07416	
510.0	0.0	1.35168	0.05457	
511.0	0.0	1.35242	0.04797	
512.0	0.0	1.35535	0.03589	
513.0	0.0	1.34985	0.01392	
514.0	0.0	1.34619	0.00494	
515.0	0.0	1.33447	-0.01501	
516.0	0.0	1.32458	-0.03369	
517.0	0.0	1.30737	-0.05164	
518.0	0.0	1.29199	-0.06409	
519.0	0.0	1.2702	-0.08112	
520.0	0.0	1.25189	-0.09375	
521.0	0.0	1.22974	-0.12177	
522.0	0.0	1.21143	-0.12598	
523.0	0.0	1.18762	-0.14594	
524.0	0.0	1.16895	-0.16827	
525.0	0.0	1.14551	-0.19629	
526.0	0.0	1.12537	-0.20654	
527.0	0.0	1.10229	-0.22888	
528.0	0.0	1.08197	-0.25708	
529.0	0.0	1.05908	-0.27814	
530.0	0.0	1.03821	-0.27795	
531.0	0.0	1.01184	-0.29993	
532.0	0.0	0.9895	-0.31146	
533.0	0.0	0.96277	-0.32703	
534.0	0.0	0.9408	-0.34039	
535.0	0.0	0.9137	-0.34753	
536.0	0.0	0.88916	-0.35999	
537.0	0.0	0.85986	-0.36566	
538.0	0.0	0.83423	-0.39294	
539.0	0.0	0.8042	-0.39258	
540.0	0.0	0.7782	-0.40869	
541.0	0.0	0.74854	-0.42188	
542.0	0.0	0.72308	-0.42572	
543.0	0.0	0.6936	-0.44513	
544.0	0.0	0.66925	-0.45026	
545.0	0.0	0.6405	-0.46179	
546.0	0.0	0.61597	-0.46912	
547.0	0.0	0.58923	-0.47681	
548.0	0.0	0.5647	-0.48175	
549.0	0.0	0.5387	-0.48889	
550.0	0.0	0.51672	-0.49365	
551.0	0.0	0.49402	-0.50043	
552.0	0.0	0.47534	-0.50098	
553.0	0.0	0.4541	-0.51288	
554.0	0.0	0.43616	-0.5153	
555.0	0.0	0.41602	-0.52588	
556.0	0.0	0.3999	-0.52203	
557.0	0.0	0.38232	-0.53275	
558.0	0.0	0.36987	-0.53046	
559.0	0.0	0.35522	-0.53394	
560.0	0.0	0.3446	-0.53046	
561.0	0.0	0.33252	-0.53265	
562.0	0.0	0.32703	-0.52835	
563.0	0.0	0.32153	-0.52162	
564.0	0.0	0.3241	-0.50748	
565.0	0.0	0.3252	-0.51434	
566.0	0.0	0.33325	-0.50015	
567.0	0.0	0.34058	-0.49146	
568.0	0.0	0.35413	-0.47269	
569.0	0.0	0.36658	-0.45886	
570.0	0.0	0.38397	-0.44037	
571.0	0.0	0.39844	-0.42352	
572.0	0.0	0.41547	-0.39716	
573.0	0.0	0.42737	-0.37921	
574.0	0.0	0.44128	-0.36914	
575.0	0.0	0.45044	-0.35815	
576.0	0.0	0.46307	-0.35083	
577.0	0.0	0.47241	-0.35321	
578.0	0.0	0.48596	-0.33929	
579.0	0.0	0.49658	-0.33362	
580.0	0.0	0.51086	-0.32648	
581.0	0.0	0.52295	-0.31787	
582.0	0.0	0.53613	-0.30908	
583.0	0.0	0.54712	-0.2959	
584.0	0.0	0.56213	-0.29974	
585.0	0.0	0.57312	-0.2948	
586.0	0.0	0.58447	-0.28198	
587.0	0.0	0.58923	-0.28674	
588.0	0.0	0.5918	-0.28015	
589.0	0.0	0.58502	-0.28912	
590.0	0.0	0.57422	-0.29265	
591.0	0.0	0.55518	-0.2796	
592.0	0.0	0.53467	-0.28729	
593.0	0.0	0.50757	-0.28326	
594.0	0.0	0.48047	-0.28766	
595.0	0.0	0.44751	-0.28162	
596.0	0.0	0.41473	-0.27136	
597.0	0.0	0.3783	-0.27649	
598.0	0.0	0.3446	-0.27502	
599.0	0.0	0.30853	-0.27081	
600.0	0.0	0.27631	-0.26486	
601.0	0.0	0.24316	-0.26752	
602.0	0.0	0.21094	-0.26074	
603.0	0.0	0.17358	-0.25067	
604.0	0.0	0.1355	-0.2428	
605.0	0.0	0.09302	-0.2395	
606.0	0.0	0.052	-0.2287	
607.0	0.0	0.00787	-0.22449	
608.0	0.0	-0.03259	-0.21515	
609.0	0.0	-0.07434	-0.2146	
610.0	0.0	-0.11261	-0.20526	
611.0	0.0	-0.15143	-0.20197	
612.0	0.0	-0.18896	-0.19006	
613.0	0.0	-0.2287	-0.18292	
614.0	0.0	-0.26642	-0.17798	
615.0	0.0	-0.30524	-0.16864	
616.0	0.0	-0.34094	-0.16113	
617.0	0.0	-0.37646	-0.15692	
618.0	0.0	-0.40796	-0.15088	
619.0	0.0	-0.43872	-0.14612	
620.0	0.0	-0.46619	-0.14191	
621.0	0.0	-0.4942	-0.13037	
622.0	0.0	-0.51892	-0.12378	
623.0	0.0	-0.54492	-0.12231	
624.0	0.0	-0.56799	-0.11298	
625.0	0.0	-0.59143	-0.11536	
626.0	0.0	-0.61157	-0.09631	
627.0	0.0	-0.6319	-0.09595	
628.0	0.0	-0.65039	-0.08459	
629.0	0.0	-0.67035	-0.07764	
630.0	0.0	-0.68646	-0.07507	
631.0	0.0	-0.70477	-0.08057	
632.0	0.0	-0.71878	-0.0791	
633.0	0.0	-0.7326	-0.09229	
634.0	0.0	-0.74286	-0.09723	
635.0	0.0	-0.75073	-0.10583	
636.0	0.0	-0.75293	-0.11243	
637.0	0.0	-0.75494	-0.11261	
638.0	0.0	-0.75256	-0.11902	
639.0	0.0	-0.75073	-0.12103	
640.0	0.0	-0.74506	-0.11829	
641.0	0.0	-0.74011	-0.12305	
642.0	0.0	-0.73077	-0.12579	
643.0	0.0	-0.72162	-0.13989	
644.0	0.0	-0.70844	-0.13879	
645.0	0.0	-0.69507	-0.14722	
646.0	0.0	-0.67712	-0.15143	
647.0	0.0	-0.65936	-0.1604	
648.0	0.0	-0.63739	-0.15202	
649.0	0.0	-0.61505	-0.15399	
650.0	0.0	-0.58667	-0.14612	
651.0	0.0	-0.55884	-0.1355	
652.0	0.0	-0.52753	-0.14035	
653.0	0.0	-0.49805	-0.1311	
654.0	0.0	-0.466	-0.12543	
655.0	0.0	-0.43579	-0.12689	
656.0	0.0	-0.40247	-0.11902	
657.0	0.0	-0.37079	-0.11572	
658.0	0.0	-0.33838	-0.1106	
659.0	0.0	-0.31073	-0.11169	
660.0	0.0	-0.28381	-0.09357	
661.0	0.0	-0.26019	-0.09375	
662.0	0.0	-0.23611	-0.08258	
663.0	0.0	-0.21423	-0.0705	
664.0	0.0	-0.19171	-0.06152	
665.0	0.0	-0.17212	-0.05347	
666.0	0.0	-0.15051	-0.04596	
667.0	0.0	-0.13092	-0.03644	
668.0	0.0	-0.11133	-0.02225	
669.0	0.0	-0.09338	-0.01447	
670.0	0.0	-0.07617	-0.00165	
671.0	0.0	-0.06244	0.00531	
672.0	0.0	-0.04633	0.01318	
673.0	0.0	-0.03223	0.01813	
674.0	0.0	-0.01721	0.026	
675.0	0.0	-0.00348	0.03918	
676.0	0.0	0.01154	0.04962	
677.0	0.0	0.02417	0.05713	
678.0	0.0	0.03772	0.065	
679.0	0.0	0.05072	0.07178	
680.0	0.0	0.06665	0.08038	
681.0	0.0	0.0835	0.08423	
682.0	0.0	0.10107	0.09631	
683.0	0.0	0.11774	0.09888	
684.0	0.0	0.13403	0.10876	
685.0	0.0	0.1474	0.11591	
686.0	0.0	0.16113	0.12396	
687.0	0.0	0.17322	0.13422	
688.0	0.0	0.18567	0.14081	
689.0	0.0	0.1972	0.14868	
690.0	0.0	0.20947	0.1593	
691.0	0.0	0.22119	0.16974	
692.0	0.0	0.23328	0.18311	
693.0	0.0	0.24463	0.1897	
694.0	0.0	0.25708	0.19775	
695.0	0.0	0.26733	0.20453	
696.0	0.0	0.27979	0.21259	
697.0	0.0	0.29279	0.21881	
698.0	0.0	0.30762	0.22778	
699.0	0.0	0.32336	0.23712	
700.0	0.0	0.34021	0.24641	
701.0	0.0	0.35742	0.25012	
702.0	0.0	0.37573	0.2569	
703.0	0.0	0.39478	0.26056	
704.0	0.0	0.41547	0.26395	
705.0	0.0	0.43652	0.26276	
706.0	0.0	0.45667	0.26404	
707.0	0.0	0.47571	0.26752	
708.0	0.0	0.4953	0.26587	
709.0	0.0	0.51489	0.25781	
710.0	0.0	0.5343	0.25378	
711.0	0.0	0.55371	0.24463	
712.0	0.0	0.57312	0.23676	
713.0	0.0	0.59253	0.22998	
714.0	0.0	0.6134	0.22394	
715.0	0.0	0.63501	0.21625	
716.0	0.0	0.65717	0.20746	
717.0	0.0	0.6806	0.19739	
718.0	0.0	0.70468	0.19006	
719.0	0.0	0.72894	0.17487	
720.0	0.0	0.75458	0.1626	
721.0	0.0	0.7793	0.1507	
722.0	0.0	0.80438	0.14319	
723.0	0.0	0.82947	0.1366	
724.0	0.0	0.85474	0.12561	
725.0	0.0	0.8811	0.11719	
726.0	0.0	0.9093	0.11746	
727.0	0.0	0.93823	0.10858	
728.0	0.0	0.96826	0.0976	
729.0	0.0	0.99683	0.09485	
730.0	0.0	1.02319	0.08514	
731.0	0.0	1.04883	0.07489	
732.0	0.0	1.07135	0.06006	
733.0	0.0	1.09351	0.06317	
734.0	0.0	1.11273	0.05988	
735.0	0.0	1.13177	0.06189	
736.0	0.0	1.14917	0.04633	
737.0	0.0	1.16473	0.04871	
738.0	0.0	1.17938	0.04559	
739.0	0.0	1.19238	0.04559	
740.0	0.0	1.20264	0.03845	
741.0	0.0	1.21326	0.03406	
742.0	0.0	1.22168	0.02014	
743.0	0.0	1.229	0.02783	
744.0	0.0	1.2334	0.0152	
745.0	0.0	1.23779	0.00183	
746.0	0.0	1.23816	0.00513	
747.0	0.0	1.23669	-0.02197	
748.0	0.0	1.23413	-0.02344	
749.0	0.0	1.23193	-0.03351	
750.0	0.0	1.229	-0.0575	
751.0	0.0	1.22461	-0.04852	
752.0	0.0	1.22021	-0.07782	
753.0	0.0	1.21509	-0.07397	
754.0	0.0	1.21143	-0.07855	
755.0	0.0	1.2063	-0.09036	
756.0	0.0	1.19916	-0.09558	
757.0	0.0	1.19165	-0.11169	
758.0	0.0	1.18286	-0.10693	
759.0	0.0	1.1748	-0.1203	
760.0	0.0	1.16931	-0.11499	
761.0	0.0	1.16492	-0.11829	
762.0	0.0	1.16345	-0.11536	
763.0	0.0	1.16199	-0.10895	
764.0	0.0	1.15961	-0.12012	
765.0	0.0	1.15503	-0.0954	
766.0	0.0	1.1488	-0.11096	
767.0	0.0	1.14111	-0.09343	
768.0	0.0	1.13489	-0.08276	
769.0	0.0	1.13086	-0.09082	
770.0	0.0	1.12683	-0.09613	
771.0	0.0	1.12573	-0.08075	
772.0	0.0	1.12427	-0.06921	
773.0	0.0	1.12463	-0.06079	
774.0	0.0	1.12097	-0.05585	
775.0	0.0	1.11768	-0.05383	
776.0	0.0	1.11255	-0.05731	
777.0	0.0	1.10742	-0.07013	
778.0	0.0	1.1012	-0.06281	
779.0	0.0	1.09387	-0.05804	
780.0	0.0	1.08435	-0.05347	
781.0	0.0	1.07446	-0.04431	
782.0	0.0	1.06476	-0.05145	
783.0	0.0	1.05762	-0.03644	
784.0	0.0	1.04919	-0.02142	
785.0	0.0	1.04224	-0.00165	
786.0	0.0	1.03418	0.01208	
787.0	0.0	1.02521	0.02417	
788.0	0.0	1.01587	0.05072	
789.0	0.0	1.00781	0.0542	
790.0	0.0	1.00122	0.06171	
791.0	0.0	0.99683	0.0705	
792.0	0.0	0.99371	0.07159	
793.0	0.0	0.99316	0.09448	
794.0	0.0	0.9917	0.10144	
795.0	0.0	0.99188	0.10638	
796.0	0.0	0.9928	0.11993	
797.0	0.0	0.99408	0.12579	
798.0	0.0	0.99536	0.12396	
799.0	0.0	0.99939	0.12506	
800.0	0.0	1.0058	0.12909	
801.0	0.0	1.01147	0.13696	
802.0	0.0	1.01514	0.13568	
803.0	0.0	1.0188	0.14117	
804.0	0.0	1.0199	0.14264	
805.0	0.0	1.021	0.13037	
806.0	0.0	1.02173	0.13971	
807.0	0.0	1.02209	0.13184	
808.0	0.0	1.01953	0.13934	
809.0	0.0	1.01587	0.13715	
810.0	0.0	1.01074	0.13605	
811.0	0.0	1.00928	0.1333	
812.0	0.0	1.00745	0.13403	
813.0	0.0	1.00854	0.1355	
814.0	0.0	1.00854	0.13916	
815.0	0.0	1.00891	0.1409	
816.0	0.0	1.00635	0.14612	
817.0	0.0	1.00232	0.14868	
818.0	0.0	0.99243	0.15271	
819.0	0.0	0.98328	0.15454	
820.0	0.0	0.97485	0.16772	
821.0	0.0	0.97009	0.16992	
822.0	0.0	0.9613	0.18951	
823.0	0.0	0.95361	0.19391	
824.0	0.0	0.94299	0.19446	
825.0	0.0	0.93457	0.19592	
826.0	0.0	0.92432	0.19043	
827.0	0.0	0.9137	0.18237	
828.0	0.0	0.90033	0.17798	
829.0	0.0	0.88733	0.17633	
830.0	0.0	0.86829	0.16919	
831.0	0.0	0.84961	0.17303	
832.0	0.0	0.82764	0.16223	
833.0	0.0	0.80969	0.15399	
834.0	0.0	0.79321	0.14722	
835.0	0.0	0.78149	0.14703	
836.0	0.0	0.77124	0.14355	
837.0	0.0	0.76465	0.1474	
838.0	0.0	0.75879	0.13495	
839.0	0.0	0.75494	0.13696	
840.0	0.0	0.75146	0.14117	
841.0	0.0	0.75092	0.13605	
842.0	0.0	0.74854	0.13385	
843.0	0.0	0.74817	0.14465	
844.0	0.0	0.74561	0.13788	
845.0	0.0	0.74432	0.13953	
846.0	0.0	0.74158	0.13715	
847.0	0.0	0.74121	0.13477	
848.0	0.0	0.7392	0.13916	
849.0	0.0	0.74048	0.13605	
850.0	0.0	0.74194	0.12177	
851.0	0.0	0.74707	0.11462	
852.0	0.0	0.75183	0.11719	
853.0	0.0	0.75842	0.11426	
854.0	0.0	0.76355	0.11646	
855.0	0.0	0.76978	0.11353	
856.0	0.0	0.7738	0.11865	
857.0	0.0	0.78003	0.12085	
858.0	0.0	0.78387	0.12689	
859.0	0.0	0.78882	0.12561	
860.0	0.0	0.79321	0.12286	
861.0	0.0	0.79816	0.13037	
862.0	0.0	0.80127	0.12561	
863.0	0.0	0.80603	0.12195	
864.0	0.0	0.80859	0.13678	
865.0	0.0	0.81152	0.13715	
866.0	0.0	0.81116	0.1377	
867.0	0.0	0.80896	0.14301	
868.0	0.0	0.80127	0.14575	
869.0	0.0	0.79211	0.15125	
870.0	0.0	0.77856	0.16168	
871.0	0.0	0.76245	0.17432	
872.0	0.0	0.74011	0.18109	
873.0	0.0	0.71594	0.18896	
874.0	0.0	0.68848	0.19427	
875.0	0.0	0.66449	0.18878	
876.0	0.0	0.63867	0.19006	
877.0	0.0	0.6145	0.18457	
878.0	0.0	0.58887	0.1842	
879.0	0.0	0.5647	0.18585	
880.0	0.0	0.53906	0.18457	
881.0	0.0	0.51727	0.18475	
882.0	0.0	0.49365	0.18018	
883.0	0.0	0.47479	0.17688	
884.0	0.0	0.45538	0.17139	
885.0	0.0	0.44202	0.16681	
886.0	0.0	0.42792	0.16315	
887.0	0.0	0.41748	0.15985	
888.0	0.0	0.40448	0.15436	
889.0	0.0	0.39551	0.15015	
890.0	0.0	0.3847	0.14264	
891.0	0.0	0.37958	0.13806	
892.0	0.0	0.37482	0.13184	
893.0	0.0	0.375	0.12854	
894.0	0.0	0.37372	0.12524	
895.0	0.0	0.37573	0.1236	
896.0	0.0	0.37372	0.1225	
897.0	0.0	0.37408	0.1225	
898.0	0.0	0.37097	0.12598	
899.0	0.0	0.36987	0.13147	
900.0	0.0	0.36548	0.1366	
901.0	0.0	0.36218	0.14337	
902.0	0.0	0.35596	0.14813	
903.0	0.0	0.3512	0.15564	
904.0	0.0	0.34277	0.15985	
905.0	0.0	0.33765	0.16187	
906.0	0.0	0.32904	0.16827	
907.0	0.0	0.3252	0.17249	
908.0	0.0	0.32043	0.16919	
909.0	0.0	0.32117	0.16644	
910.0	0.0	0.32263	0.1593	
911.0	0.0	0.32812	0.15454	
912.0	0.0	0.33472	0.14355	
913.0	0.0	0.34772	0.13202	
914.0	0.0	0.36401	0.12048	
915.0	0.0	0.38562	0.1095	
916.0	0.0	0.40759	0.09686	
917.0	0.0	0.43433	0.08533	
918.0	0.0	0.45996	0.07379	
919.0	0.0	0.48779	0.06464	
920.0	0.0	0.5127	0.05365	
921.0	0.0	0.5387	0.04486	
922.0	0.0	0.55957	0.03122	
923.0	0.0	0.58191	0.02472	
924.0	0.0	0.59711	0.02087	
925.0	0.0	0.61121	0.01428	
926.0	0.0	0.61633	0.0022	
927.0	0.0	0.62109	0.00458	
928.0	0.0	0.61816	-0.01227	
929.0	0.0	0.61139	-0.02032	
930.0	0.0	0.59766	-0.0174	
931.0	0.0	0.58301	-0.02509	
932.0	0.0	0.5636	-0.02344	
933.0	0.0	0.54419	-0.02545	
934.0	0.0	0.52039	-0.02802	
935.0	0.0	0.49915	-0.02179	
936.0	0.0	0.47443	-0.02728	
937.0	0.0	0.45282	-0.03259	
938.0	0.0	0.4292	-0.03955	
939.0	0.0	0.40942	-0.04156	
940.0	0.0	0.38782	-0.04468	
941.0	0.0	0.36987	-0.04797	
942.0	0.0	0.35083	-0.0509	
943.0	0.0	0.33582	-0.04907	
944.0	0.0	0.32043	-0.05292	
945.0	0.0	0.31165	-0.05438	
946.0	0.0	0.30286	-0.05347	
947.0	0.0	0.30048	-0.05475	
948.0	0.0	0.29773	-0.06006	
949.0	0.0	0.30029	-0.06079	
950.0	0.0	0.30176	-0.06647	
951.0	0.0	0.30762	-0.07452	
952.0	0.0	0.30927	-0.08496	
953.0	0.0	0.31274	-0.08533	
954.0	0.0	0.31274	-0.0976	
955.0	0.0	0.31641	-0.10126	
956.0	0.0	0.31604	-0.10583	
957.0	0.0	0.31989	-0.1084	
958.0	0.0	0.32043	-0.11884	
959.0	0.0	0.32465	-0.12122	
960.0	0.0	0.3252	-0.13568	
961.0	0.0	0.32703	-0.13586	
962.0	0.0	0.32336	-0.1463	
963.0	0.0	0.32227	-0.15125	
964.0	0.0	0.31494	-0.15985	
965.0	0.0	0.30835	-0.16956	
966.0	0.0	0.29535	-0.1723	
967.0	0.0	0.28381	-0.17413	
968.0	0.0	0.26587	-0.17285	
969.0	0.0	0.24866	-0.16022	
970.0	0.0	0.22742	-0.15656	
971.0	0.0	0.20526	-0.14813	
972.0	0.0	0.17908	-0.14355	
973.0	0.0	0.15564	-0.13239	
974.0	0.0	0.12781	-0.12634	
975.0	0.0	0.10474	-0.11444	
976.0	0.0	0.07965	-0.10583	
977.0	0.0	0.05859	-0.09027	
978.0	0.0	0.03479	-0.08679	
979.0	0.0	0.0152	-0.07159	
980.0	0.0	-0.00659	-0.06583	
981.0	0.0	-0.02344	-0.06409	
982.0	0.0	-0.04175	-0.06372	
983.0	0.0	-0.05566	-0.06262	
984.0	0.0	-0.07214	-0.05786	
985.0	0.0	-0.08423	-0.0553	
986.0	0.0	-0.09943	-0.05383	
987.0	0.0	-0.10986	-0.04834	
988.0	0.0	-0.12231	-0.05292	
989.0	0.0	-0.12872	-0.05548	
990.0	0.0	-0.13678	-0.05475	
991.0	0.0	-0.13953	-0.0575	
992.0	0.0	-0.1441	-0.06537	
993.0	0.0	-0.14465	-0.06592	
994.0	0.0	-0.1474	-0.07306	
995.0	0.0	-0.14594	-0.08386	
996.0	0.0	-0.14612	-0.08936	
997.0	0.0	-0.14209	-0.091	
998.0	0.0	-0.13916	-0.11041	
999.0	0.0	-0.13147	-0.11133	
1000.0	0.0	-0.12561	-0.12634	
1001.0	0.0	-0.11609	-0.1377	
1002.0	0.0	-0.11005	-0.15747	
1003.0	0.0	-0.10144	-0.16571	
1004.0	0.0	-0.09778	-0.17688	
1005.0	0.0	-0.09338	-0.1853	
1006.0	0.0	-0.09448	-0.19739	
1007.0	0.0	-0.09485	-0.20251	
1008.0	0.0	-0.10144	-0.21295	
1009.0	0.0	-0.10767	-0.21826	
1010.0	0.0	-0.11957	-0.22852	
1011.0	0.0	-0.13092	-0.23035	
1012.0	0.0	-0.14722	-0.24207	
1013.0	0.0	-0.1593	-0.23895	
1014.0	0.0	-0.17505	-0.24408	
1015.0	0.0	-0.18549	-0.24408	
1016.0	0.0	-0.19922	-0.25012	
1017.0	0.0	-0.20911	-0.25433	
1018.0	0.0	-0.22192	-0.25616	
1019.0	0.0	-0.2309	-0.25452	
1020.0	0.0	-0.24243	-0.26331	
1021.0	0.0	-0.24939	-0.25928	
1022.0	0.0	-0.25873	-0.26642	
1023.0	0.0	-0.26239	-0.26953	
1024.0	0.0	-0.2688	-0.2829	
1025.0	0.0	-0.2699	-0.28711	
1026.0	0.0	-0.27356	-0.29956	
1027.0	0.0	-0.27246	-0.30725	
1028.0	0.0	-0.27374	-0.3252	
1029.0	0.0	-0.26807	-0.34351	
1030.0	0.0	-0.26257	-0.36511	
1031.0	0.0	-0.24866	-0.38452	
1032.0	0.0	-0.23547	-0.40979	
1033.0	0.0	-0.21606	-0.43268	
1034.0	0.0	-0.19775	-0.46088	
1035.0	0.0	-0.17432	-0.48138	
1036.0	0.0	-0.15234	-0.51343	
1037.0	0.0	-0.12506	-0.53723	
1038.0	0.0	-0.10144	-0.56287	
1039.0	0.0	-0.07452	-0.58392	
1040.0	0.0	-0.05127	-0.60114	
1041.0	0.0	-0.026	-0.62347	
1042.0	0.0	-0.00604	-0.64526	
1043.0	0.0	0.01703	-0.66843	
1044.0	0.0	0.03314	-0.68848	
1045.0	0.0	0.04944	-0.69516	
1046.0	0.0	0.05695	-0.70853	
1047.0	0.0	0.06317	-0.72839	
1048.0	0.0	0.06226	-0.74226	
1049.0	0.0	0.06335	-0.74524	
1050.0	0.0	0.05951	-0.75325	
1051.0	0.0	0.06116	-0.74487	
1052.0	0.0	0.06134	-0.76556	
1053.0	0.0	0.06903	-0.76355	
1054.0	0.0	0.0791	-0.77829	
1055.0	0.0	0.10107	-0.78918	
1056.0	0.0	0.12982	-0.7923	
1057.0	0.0	0.17285	-0.8064	
1058.0	0.0	0.22009	-0.8324	
1059.0	0.0	0.27832	-0.84879	
1060.0	0.0	0.33856	-0.87648	
1061.0	0.0	0.40686	-0.88257	
1062.0	0.0	0.47351	-0.91113	
1063.0	0.0	0.5354	-0.93365	
1064.0	0.0	0.5929	-0.94281	
1065.0	0.0	0.64673	-0.9494	
1066.0	0.0	0.6936	-0.96497	
1067.0	0.0	0.74194	-0.96931	
1068.0	0.0	0.78223	-0.9933	
1069.0	0.0	0.82361	-0.99939	
1070.0	0.0	0.86243	-0.995	
1071.0	0.0	0.90015	-0.99701	
1072.0	0.0	0.93311	-1.00177	
1073.0	0.0	0.96606	-0.99825	
1074.0	0.0	0.99792	-1.00154	
1075.0	0.0	1.02795	-0.99902	
1076.0	0.0	1.05615	-0.99898	
1077.0	0.0	1.08179	-1.00127	
1078.0	0.0	1.10376	-0.9928	
1079.0	0.0	1.1272	-0.99188	
1080.0	0.0	1.14441	-0.99628	
1081.0	0.0	1.16345	-0.98291	
1082.0	0.0	1.17334	-0.97156	
1083.0	0.0	1.18176	-0.95334	
1084.0	0.0	1.1792	-0.93329	
1085.0	0.0	1.17554	-0.90491	
1086.0	0.0	1.16089	-0.88051	
1087.0	0.0	1.14624	-0.81995	
1088.0	0.0	1.12061	-0.78076	
1089.0	0.0	1.09717	-0.73956	
1090.0	0.0	1.06567	-0.69415	
1091.0	0.0	1.03674	-0.66083	
1092.0	0.0	1.00049	-0.62073	
1093.0	0.0	0.96533	-0.59656	
1094.0	0.0	0.92542	-0.56085	
1095.0	0.0	0.88989	-0.52826	
1096.0	0.0	0.85034	-0.49915	
1097.0	0.0	0.81519	-0.46024	
1098.0	0.0	0.77563	-0.43195	
1099.0	0.0	0.73938	-0.38983	
1100.0	0.0	0.70093	-0.36603	
1101.0	0.0	0.66577	-0.33252	
1102.0	0.0	0.62585	-0.30267	
1103.0	0.0	0.59198	-0.26926	
1104.0	0.0	0.55225	-0.2547	
1105.0	0.0	0.51636	-0.23145	
1106.0	0.0	0.47205	-0.20764	
1107.0	0.0	0.4292	-0.19574	
1108.0	0.0	0.37756	-0.1778	
1109.0	0.0	0.32336	-0.15244	
1110.0	0.0	0.25891	-0.14575	
1111.0	0.0	0.19116	-0.12524	
1112.0	0.0	0.11169	-0.11115	
1113.0	0.0	0.02765	-0.09265	
1114.0	0.0	-0.06189	-0.078	
1115.0	0.0	-0.14612	-0.05786	
1116.0	0.0	-0.22559	-0.04248	
1117.0	0.0	-0.29993	-0.02325	
1118.0	0.0	-0.36987	-0.00146	
1119.0	0.0	-0.43488	0.01886	
1120.0	0.0	-0.49585	0.03992	
1121.0	0.0	-0.55188	0.06757	
1122.0	0.0	-0.60645	0.08643	
1123.0	0.0	-0.65634	0.11646	
1124.0	0.0	-0.70459	0.12469	
1125.0	0.0	-0.74817	0.1506	
1126.0	0.0	-0.79102	0.17047	
1127.0	0.0	-0.8302	0.18402	
1128.0	0.0	-0.86774	0.19016	
1129.0	0.0	-0.90353	0.20764	
1130.0	0.0	-0.93704	0.21606	
1131.0	0.0	-0.9684	0.2146	
1132.0	0.0	-0.99866	0.21277	
1133.0	0.0	-1.02594	0.20627	
1134.0	0.0	-1.05258	0.18475	
1135.0	0.0	-1.07538	0.1604	
1136.0	0.0	-1.09982	0.12799	
1137.0	0.0	-1.1217	0.0932	
1138.0	0.0	-1.14308	0.04468	
1139.0	0.0	-1.16272	-0.01035	
1140.0	0.0	-1.18185	-0.06519	
1141.0	0.0	-1.19778	-0.11609	
1142.0	0.0	-1.21509	-0.1875	
1143.0	0.0	-1.23047	-0.25012	
1144.0	0.0	-1.24585	-0.30762	
1145.0	0.0	-1.26036	-0.37372	
1146.0	0.0	-1.27405	-0.43304	
1147.0	0.0	-1.28645	-0.48761	
1148.0	0.0	-1.29872	-0.54126	
1149.0	0.0	-1.30865	-0.56268	
1150.0	0.0	-1.31992	-0.61597	
1151.0	0.0	-1.32935	-0.63675	
1152.0	0.0	-1.33891	-0.68225	
1153.0	0.0	-1.3483	-0.71265	
1154.0	0.0	-1.35672	-0.75934	
1155.0	0.0	-1.36317	-0.8085	
1156.0	0.0	-1.37105	-0.84503	
1157.0	0.0	-1.36697	-0.87268	
1158.0	0.0	-1.36047	-0.90665	
1159.0	0.0	-1.34079	-0.93915	
1160.0	0.0	-1.319	-0.97701	
1161.0	0.0	-1.28549	-0.99161	
1162.0	0.0	-1.25418	-1.008	
1163.0	0.0	-1.21761	-1.01495	
1164.0	0.0	-1.19	-1.02896	
1165.0	0.0	-1.16327	-1.04553	
1166.0	0.0	-1.15009	-1.06728	
1167.0	0.0	-1.14432	-1.07877	
1168.0	0.0	-1.16034	-1.08865	
1169.0	0.0	-1.18373	-1.08463	
1170.0	0.0	-1.2085	-1.08792	
1171.0	0.0	-1.22433	-1.08774	
1172.0	0.0	-1.23669	-1.10175	
1173.0	0.0	-1.23102	-1.10861	
1174.0	0.0	-1.21609	-1.11749	
1175.0	0.0	-1.18195	-1.10999	
1176.0	0.0	-1.13782	-1.09955	
1177.0	0.0	-1.07602	-1.07758	
1178.0	0.0	-1.00818	-1.05643	
1179.0	0.0	-0.92532	-1.02383	
1180.0	0.0	-0.8313	-1.00031	
1181.0	0.0	-0.71205	-0.97183	
1182.0	0.0	-0.57715	-0.96231	
1183.0	0.0	-0.45227	-0.94592	
1184.0	0.0	-0.33691	-0.94478	
1185.0	0.0	-0.22906	-0.9277	
1186.0	0.0	-0.12781	-0.89722	
1187.0	0.0	-0.03278	-0.85162	
1188.0	0.0	0.0575	-0.80988	
1189.0	0.0	0.14246	-0.76538	
1190.0	0.0	0.21606	-0.74927	
1191.0	0.0	0.28674	-0.72098	
1192.0	0.0	0.34241	-0.70093	
1193.0	0.0	0.38745	-0.6709	
1194.0	0.0	0.40906	-0.64961	
1195.0	0.0	0.41327	-0.61798	
1196.0	0.0	0.38635	-0.58008	
1197.0	0.0	0.34241	-0.54327	
1198.0	0.0	0.27484	-0.51041	
1199.0	0.0	0.19922	-0.48285	
1200.0	0.0	0.11096	-0.46399	
1201.0	0.0	0.02197	-0.43909	
1202.0	0.0	-0.07452	-0.43909	
1203.0	0.0	-0.16443	-0.42883	
1204.0	0.0	-0.24902	-0.42801	
1205.0	0.0	-0.32227	-0.42261	
1206.0	0.0	-0.39258	-0.41931	
1207.0	0.0	-0.45172	-0.41327	
1208.0	0.0	-0.50739	-0.42224	
1209.0	0.0	-0.54822	-0.42426	
1210.0	0.0	-0.58191	-0.4292	
1211.0	0.0	-0.60315	-0.43085	
1212.0	0.0	-0.62842	-0.42078	
1213.0	0.0	-0.65662	-0.39313	
1214.0	0.0	-0.70093	-0.3761	
1215.0	0.0	-0.74835	-0.34406	
1216.0	0.0	-0.79303	-0.33362	
1217.0	0.0	-0.83423	-0.33966	
1218.0	0.0	-0.87392	-0.34259	
1219.0	0.0	-0.90646	-0.35028	
1220.0	0.0	-0.94135	-0.37811	
1221.0	0.0	-0.96918	-0.3772	
1222.0	0.0	-0.99802	-0.3913	
1223.0	0.0	-1.01651	-0.39075	
1224.0	0.0	-1.03432	-0.40759	
1225.0	0.0	-1.03986	-0.40338	
1226.0	0.0	-1.04123	-0.42371	
1227.0	0.0	-1.02228	-0.43634	
1228.0	0.0	-0.99188	-0.46143	
1229.0	0.0	-0.9418	-0.46307	
1230.0	0.0	-0.88879	-0.48669	
1231.0	0.0	-0.82755	-0.48083	
1232.0	0.0	-0.77554	-0.48267	
1233.0	0.0	-0.72876	-0.4552	
1234.0	0.0	-0.70093	-0.43268	
1235.0	0.0	-0.68005	-0.40576	
1236.0	0.0	-0.67273	-0.39111	
1237.0	0.0	-0.66467	-0.38278	
1238.0	0.0	-0.66211	-0.38104	
1239.0	0.0	-0.65497	-0.37912	
1240.0	0.0	-0.65387	-0.37958	
1241.0	0.0	-0.64746	-0.38031	
1242.0	0.0	-0.64636	-0.38727	
1243.0	0.0	-0.63739	-0.38123	
1244.0	0.0	-0.63043	-0.39496	
1245.0	0.0	-0.61377	-0.38589	
1246.0	0.0	-0.59747	-0.40027	
1247.0	0.0	-0.57056	-0.39972	
1248.0	0.0	-0.54309	-0.42041	
1249.0	0.0	-0.50519	-0.42682	
1250.0	0.0	-0.4682	-0.43451	
1251.0	0.0	-0.4248	-0.42828	
1252.0	0.0	-0.38965	-0.42114	
1253.0	0.0	-0.36145	-0.38708	
1254.0	0.0	-0.35248	-0.36584	
1255.0	0.0	-0.35431	-0.32977	
1256.0	0.0	-0.37555	-0.31558	
1257.0	0.0	-0.39917	-0.29773	
1258.0	0.0	-0.4292	-0.29077	
1259.0	0.0	-0.45081	-0.29114	
1260.0	0.0	-0.47351	-0.28207	
1261.0	0.0	-0.48669	-0.2796	
1262.0	0.0	-0.49988	-0.28308	
1263.0	0.0	-0.50244	-0.26898	
1264.0	0.0	-0.50134	-0.27264	
1265.0	0.0	-0.48596	-0.27081	
1266.0	0.0	-0.46454	-0.28253	
1267.0	0.0	-0.42572	-0.28528	
1268.0	0.0	-0.38141	-0.30194	
1269.0	0.0	-0.32465	-0.30437	
1270.0	0.0	-0.27173	-0.30725	
1271.0	0.0	-0.21167	-0.29553	
1272.0	0.0	-0.15417	-0.27319	
1273.0	0.0	-0.09283	-0.24573	
1274.0	0.0	-0.03699	-0.22559	
1275.0	0.0	0.01758	-0.1994	
1276.0	0.0	0.06042	-0.18082	
1277.0	0.0	0.09888	-0.15967	
1278.0	0.0	0.12268	-0.14594	
1279.0	0.0	0.14282	-0.12817	
1280.0	0.0	0.15344	-0.11664	
1281.0	0.0	0.16571	-0.09961	
1282.0	0.0	0.17285	-0.0921	
1283.0	0.0	0.18549	-0.07928	
1284.0	0.0	0.19629	-0.078	
1285.0	0.0	0.21515	-0.07123	
1286.0	0.0	0.23566	-0.07361	
1287.0	0.0	0.26807	-0.07251	
1288.0	0.0	0.30579	-0.08386	
1289.0	0.0	0.36493	-0.09613	
1290.0	0.0	0.43103	-0.12744	
1291.0	0.0	0.49219	-0.17706	
1292.0	0.0	0.54932	-0.25031	
1293.0	0.0	0.60315	-0.32501	
1294.0	0.0	0.6535	-0.41089	
1295.0	0.0	0.70129	-0.46729	
1296.0	0.0	0.74561	-0.53375	
1297.0	0.0	0.78827	-0.56964	
1298.0	0.0	0.82837	-0.60883	
1299.0	0.0	0.86664	-0.61084	
1300.0	0.0	0.90161	-0.61505	
1301.0	0.0	0.93347	-0.60461	
1302.0	0.0	0.94666	-0.60315	
1303.0	0.0	0.94556	-0.59802	
1304.0	0.0	0.91479	-0.58868	
1305.0	0.0	0.85693	-0.58411	
1306.0	0.0	0.76611	-0.56305	
1307.0	0.0	0.65332	-0.53192	
1308.0	0.0	0.51599	-0.51837	
1309.0	0.0	0.38782	-0.49695	
1310.0	0.0	0.271	-0.46747	
1311.0	0.0	0.16351	-0.4292	
1312.0	0.0	0.06372	-0.39404	
1313.0	0.0	-0.03003	-0.35614	
1314.0	0.0	-0.11792	-0.32428	
1315.0	0.0	-0.1994	-0.28583	
1316.0	0.0	-0.27686	-0.26074	
1317.0	0.0	-0.34625	-0.2168	
1318.0	0.0	-0.41437	-0.17798	
1319.0	0.0	-0.47589	-0.1333	
1320.0	0.0	-0.53558	-0.10712	
1321.0	0.0	-0.58704	-0.05365	
1322.0	0.0	-0.63959	-0.01245	
1323.0	0.0	-0.68481	0.0249	
1324.0	0.0	-0.73224	0.06482	
1325.0	0.0	-0.77467	0.10986	
1326.0	0.0	-0.81628	0.15582	
1327.0	0.0	-0.85574	0.2048	
1328.0	0.0	-0.89282	0.25214	
1329.0	0.0	-0.92798	0.29132	
1330.0	0.0	-0.96085	0.33527	
1331.0	0.0	-0.99188	0.34012	
1332.0	0.0	-1.02136	0.37354	
1333.0	0.0	-1.04553	0.3924	
1334.0	0.0	-1.07062	0.37006	
1335.0	0.0	-1.08362	0.35376	
1336.0	0.0	-1.09424	0.34314	
1337.0	0.0	-1.09094	0.31494	
1338.0	0.0	-1.0881	0.27686	
1339.0	0.0	-1.07625	0.25397	
1340.0	0.0	-1.07007	0.23547	
1341.0	0.0	-1.0611	0.20947	
1342.0	0.0	-1.0675	0.21973	
1343.0	0.0	-1.08051	0.23145	
1344.0	0.0	-1.1098	0.2525	
1345.0	0.0	-1.13461	0.2851	
1346.0	0.0	-1.1564	0.31714	
1347.0	0.0	-1.17677	0.39679	
1348.0	0.0	-1.19586	0.44495	
1349.0	0.0	-1.21362	0.49329	
1350.0	0.0	-1.23019	0.50739	
1351.0	0.0	-1.24393	0.5072	
1352.0	0.0	-1.25908	0.50684	
1353.0	0.0	-1.27295	0.48596	
1354.0	0.0	-1.28609	0.44559	
1355.0	0.0	-1.29877	0.42215	
1356.0	0.0	-1.31039	0.38965	
1357.0	0.0	-1.32037	0.37225	
1358.0	0.0	-1.33099	0.35156	
1359.0	0.0	-1.33301	0.30835	
1360.0	0.0	-1.33626	0.28729	
1361.0	0.0	-1.32687	0.26862	
1362.0	0.0	-1.31598	0.21478	
1363.0	0.0	-1.29236	0.19061	
1364.0	0.0	-1.27034	0.16992	
1365.0	0.0	-1.23999	0.15729	
1366.0	0.0	-1.2149	0.14227	
1367.0	0.0	-1.18533	0.14081	
1368.0	0.0	-1.16125	0.12909	
1369.0	0.0	-1.12976	0.14337	
1370.0	0.0	-1.09955	0.12671	
1371.0	0.0	-1.05707	0.11536	
1372.0	0.0	-1.00946	0.10052	
1373.0	0.0	-0.94876	0.07727	
1374.0	0.0	-0.8866	0.06097	
1375.0	0.0	-0.81537	0.04321	
1376.0	0.0	-0.74753	0.02985	
1377.0	0.0	-0.67328	0.01685	
1378.0	0.0	-0.60095	-0.00732	
1379.0	0.0	-0.52075	-0.01831	
1380.0	0.0	-0.43762	-0.03186	
1381.0	0.0	-0.33893	-0.05237	
1382.0	0.0	-0.23273	-0.07855	
1383.0	0.0	-0.1311	-0.09155	
1384.0	0.0	-0.03497	-0.11572	
1385.0	0.0	0.0564	-0.13	
1386.0	0.0	0.14117	-0.14337	
1387.0	0.0	0.22046	-0.14136	
1388.0	0.0	0.29535	-0.1322	
1389.0	0.0	0.36438	-0.11554	
1390.0	0.0	0.4292	-0.09576	
1391.0	0.0	0.48962	-0.06885	
1392.0	0.0	0.54639	-0.04852	
1393.0	0.0	0.59985	-0.0152	
1394.0	0.0	0.64966	0.00458	
1395.0	0.0	0.698	0.02344	
1396.0	0.0	0.74341	0.04395	
1397.0	0.0	0.78516	0.06326	
1398.0	0.0	0.82581	0.06921	
1399.0	0.0	0.86353	0.07819	
1400.0	0.0	0.89868	0.07196	
1401.0	0.0	0.93201	0.09247	
1402.0	0.0	0.9635	0.08441	
1403.0	0.0	0.99316	0.08551	
1404.0	0.0	1.02045	0.0813	
1405.0	0.0	1.04773	0.08276	
1406.0	0.0	1.073	0.07489	
1407.0	0.0	1.09753	0.07361	
1408.0	0.0	1.11987	0.0694	
1409.0	0.0	1.14258	0.07159	
1410.0	0.0	1.16199	0.05823	
1411.0	0.0	1.18103	0.04614	
1412.0	0.0	1.19824	0.03168	
1413.0	0.0	1.21289	0.02902	
1414.0	0.0	1.21765	0.02856	
1415.0	0.0	1.21802	0.0152	
1416.0	0.0	1.19971	0.01355	
1417.0	0.0	1.17188	0.02966	
1418.0	0.0	1.11841	0.02527	
1419.0	0.0	1.05652	0.02637	
1420.0	0.0	0.98401	0.01337	
1421.0	0.0	0.91772	0.00916	
1422.0	0.0	0.8562	-0.02124	
1423.0	0.0	0.80347	-0.03314	
1424.0	0.0	0.7511	-0.06033	
1425.0	0.0	0.70459	-0.08038	
1426.0	0.0	0.65259	-0.1095	
1427.0	0.0	0.60498	-0.12451	
1428.0	0.0	0.54932	-0.15033	
1429.0	0.0	0.49219	-0.1593	
1430.0	0.0	0.42554	-0.18018	
1431.0	0.0	0.35706	-0.18494	
1432.0	0.0	0.27832	-0.1897	
1433.0	0.0	0.19849	-0.19281	
1434.0	0.0	0.1106	-0.19611	
1435.0	0.0	0.02271	-0.19263	
1436.0	0.0	-0.0661	-0.19922	
1437.0	0.0	-0.14941	-0.20453	
1438.0	0.0	-0.22833	-0.20911	
1439.0	0.0	-0.30194	-0.21497	
1440.0	0.0	-0.37152	-0.23071	
1441.0	0.0	-0.43671	-0.24115	
1442.0	0.0	-0.49786	-0.25067	
1443.0	0.0	-0.55444	-0.26294	
1444.0	0.0	-0.60864	-0.27557	
1445.0	0.0	-0.65735	-0.27539	
1446.0	0.0	-0.70569	-0.27979	
1447.0	0.0	-0.74945	-0.26642	
1448.0	0.0	-0.79248	-0.27173	
1449.0	0.0	-0.83057	-0.26239	
1450.0	0.0	-0.86865	-0.25671	
1451.0	0.0	-0.90253	-0.24518	
1452.0	0.0	-0.9364	-0.23877	
1453.0	0.0	-0.96387	-0.22485	
1454.0	0.0	-0.99413	-0.21863	
1455.0	0.0	-1.01701	-0.21295	
1456.0	0.0	-1.04182	-0.20416	
1457.0	0.0	-1.05968	-0.19574	
1458.0	0.0	-1.07936	-0.1778	
1459.0	0.0	-1.09149	-0.16663	
1460.0	0.0	-1.10632	-0.16388	
1461.0	0.0	-1.11584	-0.13989	
1462.0	0.0	-1.13058	-0.11609	
1463.0	0.0	-1.14349	-0.1062	
1464.0	0.0	-1.16299	-0.08459	
1465.0	0.0	-1.1792	-0.0639	
1466.0	0.0	-1.19833	-0.0531	
1467.0	0.0	-1.21335	-0.02985	
1468.0	0.0	-1.22992	-0.02142	
1469.0	0.0	-1.24237	-0.00586	
1470.0	0.0	-1.25739	0.00366	
1471.0	0.0	-1.26773	-0.00476	
1472.0	0.0	-1.28128	-0.00092	
1473.0	0.0	-1.29117	0.02454	
1474.0	0.0	-1.30325	0.01575	
1475.0	0.0	-1.31076	0.02216	
1476.0	0.0	-1.32147	0.02179	
1477.0	0.0	-1.32692	0.03983	
1478.0	0.0	-1.33727	0.03607	
1479.0	0.0	-1.3434	0.06335	
1480.0	0.0	-1.3526	0.06555	
1481.0	0.0	-1.35265	0.08057	
1482.0	0.0	-1.34958	0.09558	
1483.0	0.0	-1.32742	0.11609	
1484.0	0.0	-1.3006	0.12579	
1485.0	0.0	-1.26251	0.1496	
1486.0	0.0	-1.22745	0.15015	
1487.0	0.0	-1.18652	0.18494	
1488.0	0.0	-1.1521	0.20325	
1489.0	0.0	-1.11365	0.21808	
1490.0	0.0	-1.08124	0.24664	
1491.0	0.0	-1.04425	0.27571	
1492.0	0.0	-1.01404	0.28436	
1493.0	0.0	-0.98048	0.30432	
1494.0	0.0	-0.95435	0.32483	
1495.0	0.0	-0.92578	0.35577	
1496.0	0.0	-0.905	0.36383	
1497.0	0.0	-0.88074	0.37482	
1498.0	0.0	-0.86224	0.39697	
1499.0	0.0	-0.83917	0.41638	
1500.0	0.0	-0.82269	0.42627	
1501.0	0.0	-0.80328	0.44806	
1502.0	0.0	-0.78882	0.45703	
1503.0	0.0	-0.77032	0.48669	
1504.0	0.0	-0.75952	0.49896	
1505.0	0.0	-0.74597	0.52766	
1506.0	0.0	-0.73737	0.53741	
1507.0	0.0	-0.72382	0.56277	
1508.0	0.0	-0.71777	0.57385	
1509.0	0.0	-0.70752	0.59033	
1510.0	0.0	-0.70386	0.60535	
1511.0	0.0	-0.69653	0.62109	
1512.0	0.0	-0.69562	0.62567	
1513.0	0.0	-0.68811	0.64856	
1514.0	0.0	-0.68665	0.64783	
1515.0	0.0	-0.68097	0.67603	
1516.0	0.0	-0.68115	0.68234	
1517.0	0.0	-0.67767	0.70294	
1518.0	0.0	-0.68143	0.70422	
1519.0	0.0	-0.68216	0.72913	
1520.0	0.0	-0.69086	0.7262	
1521.0	0.0	-0.69763	0.74835	
1522.0	0.0	-0.71338	0.73755	
1523.0	0.0	-0.72656	0.76575	
1524.0	0.0	-0.74524	0.77271	
1525.0	0.0	-0.75659	0.78333	
1526.0	0.0	-0.77078	0.78625	
1527.0	0.0	-0.77747	0.79486	
1528.0	0.0	-0.78772	0.77472	
1529.0	0.0	-0.79193	0.81116	
1530.0	0.0	-0.80219	0.81647	
1531.0	0.0	-0.8091	0.82983	
1532.0	0.0	-0.82416	0.82874	
1533.0	0.0	-0.83624	0.84357	
1534.0	0.0	-0.85455	0.84027	
1535.0	0.0	-0.87012	0.85565	
1536.0	0.0	-0.89264	0.85291	
1537.0	0.0	-0.9126	0.86133	
1538.0	0.0	-0.93759	0.86279	
1539.0	0.0	-0.95892	0.86298	
1540.0	0.0	-0.9873	0.86646	
1541.0	0.0	-1.01147	0.86829	
1542.0	0.0	-1.04187	0.84741	
1543.0	0.0	-1.07034	0.87726	
1544.0	0.0	-1.09923	0.87305	
1545.0	0.0	-1.12349	0.88513	
1546.0	0.0	-1.14807	0.87177	
1547.0	0.0	-1.16638	0.89209	
1548.0	0.0	-1.18813	0.89923	
1549.0	0.0	-1.20538	0.90179	
1550.0	0.0	-1.22475	0.89868	
1551.0	0.0	-1.23926	0.92029	
1552.0	0.0	-1.25642	0.91479	
1553.0	0.0	-1.26869	0.92834	
1554.0	0.0	-1.28325	0.89447	
1555.0	0.0	-1.29227	0.92944	
1556.0	0.0	-1.30627	0.93164	
1557.0	0.0	-1.3168	0.94189	
1558.0	0.0	-1.32843	0.92102	
1559.0	0.0	-1.33804	0.95105	
1560.0	0.0	-1.34793	0.95563	
1561.0	0.0	-1.3548	0.96973	
1562.0	0.0	-1.36345	0.96698	
1563.0	0.0	-1.3667	0.96899	
1564.0	0.0	-1.37462	0.9776	
1565.0	0.0	-1.37384	0.98602	
1566.0	0.0	-1.37613	0.98218	
1567.0	0.0	-1.37091	0.9895	
1568.0	0.0	-1.36958	0.98401	
1569.0	0.0	-1.36011	0.98969	
1570.0	0.0	-1.35329	0.97884	
1571.0	0.0	-1.33804	0.98383	
1572.0	0.0	-1.32706	0.98254	
1573.0	0.0	-1.30801	0.98254	
1574.0	0.0	-1.29126	0.97339	
1575.0	0.0	-1.26961	0.96606	
1576.0	0.0	-1.25519	0.95068	
1577.0	0.0	-1.23354	0.95215	
1578.0	0.0	-1.21422	0.93713	
1579.0	0.0	-1.18593	0.91058	
1580.0	0.0	-1.15759	0.93036	
1581.0	0.0	-1.12253	0.92358	
1582.0	0.0	-1.09277	0.9245	
1583.0	0.0	-1.0589	0.89117	
1584.0	0.0	-1.03052	0.91003	
1585.0	0.0	-0.99774	0.91553	
1586.0	0.0	-0.97009	0.90857	
1587.0	0.0	-0.93787	0.90051	
1588.0	0.0	-0.90875	0.8877	
1589.0	0.0	-0.87396	0.87744	
1590.0	0.0	-0.84485	0.87103	
1591.0	0.0	-0.81299	0.83606	
1592.0	0.0	-0.78754	0.84778	
1593.0	0.0	-0.75897	0.83899	
1594.0	0.0	-0.73425	0.80109	
1595.0	0.0	-0.70404	0.81427	
1596.0	0.0	-0.67813	0.79715	
1597.0	0.0	-0.64819	0.80017	
1598.0	0.0	-0.62292	0.79211	
1599.0	0.0	-0.59473	0.79266	
1600.0	0.0	-0.57458	0.78479	
1601.0	0.0	-0.55298	0.77582	
1602.0	0.0	-0.5376	0.77417	
1603.0	0.0	-0.52148	0.77252	
1604.0	0.0	-0.51251	0.76355	
1605.0	0.0	-0.50061	0.73682	
1606.0	0.0	-0.49457	0.75531	
1607.0	0.0	-0.48523	0.75989	
1608.0	0.0	-0.4823	0.75348	
1609.0	0.0	-0.47571	0.75677	
1610.0	0.0	-0.47333	0.73132	
1611.0	0.0	-0.46545	0.74286	
1612.0	0.0	-0.46307	0.73132	
1613.0	0.0	-0.45502	0.72894	
1614.0	0.0	-0.45026	0.71411	
1615.0	0.0	-0.43945	0.71429	
1616.0	0.0	-0.43213	0.69781	
1617.0	0.0	-0.41931	0.69415	
1618.0	0.0	-0.41162	0.67419	
1619.0	0.0	-0.39899	0.67456	
1620.0	0.0	-0.38947	0.65991	
1621.0	0.0	-0.3728	0.64545	
1622.0	0.0	-0.35664	0.62274	
1623.0	0.0	-0.33344	0.61377	
1624.0	0.0	-0.31274	0.59143	
1625.0	0.0	-0.28693	0.57971	
1626.0	0.0	-0.26404	0.55334	
1627.0	0.0	-0.23639	0.5365	
1628.0	0.0	-0.2113	0.52954	
1629.0	0.0	-0.18164	0.51233	
1630.0	0.0	-0.15637	0.50061	
1631.0	0.0	-0.12927	0.47534	
1632.0	0.0	-0.10693	0.46234	
1633.0	0.0	-0.0824	0.46161	
1634.0	0.0	-0.06189	0.4411	
1635.0	0.0	-0.03772	0.42407	
1636.0	0.0	-0.01904	0.39624	
1637.0	0.0	0.0011	0.38983	
1638.0	0.0	0.013	0.36786	
1639.0	0.0	0.02344	0.3501	
1640.0	0.0	0.02307	0.34016	
1641.0	0.0	0.01978	0.32996	
1642.0	0.0	0.00439	0.30963	
1643.0	0.0	-0.01208	0.29865	
1644.0	0.0	-0.03589	0.29059	
1645.0	0.0	-0.05493	0.28473	
1646.0	0.0	-0.08112	0.26733	
1647.0	0.0	-0.10529	0.27649	
1648.0	0.0	-0.1333	0.2688	
1649.0	0.0	-0.15381	0.27612	
1650.0	0.0	-0.17084	0.28381	
1651.0	0.0	-0.17834	0.3045	
1652.0	0.0	-0.18732	0.30981	
1653.0	0.0	-0.18677	0.36072	
1654.0	0.0	-0.18713	0.3891	
1655.0	0.0	-0.18054	0.40997	
1656.0	0.0	-0.17798	0.44513	
1657.0	0.0	-0.17194	0.4715	
1658.0	0.0	-0.17212	0.48615	
1659.0	0.0	-0.16992	0.5105	
1660.0	0.0	-0.17596	0.53522	
1661.0	0.0	-0.17944	0.55609	
1662.0	0.0	-0.1886	0.57532	
1663.0	0.0	-0.19702	0.59436	
1664.0	0.0	-0.21204	0.62128	
1665.0	0.0	-0.22339	0.64856	
1666.0	0.0	-0.23657	0.68079	
1667.0	0.0	-0.2428	0.72688	
1668.0	0.0	-0.24939	0.76282	
1669.0	0.0	-0.24847	0.80127	
1670.0	0.0	-0.24829	0.80292	
1671.0	0.0	-0.24023	0.84631	
1672.0	0.0	-0.23291	0.8714	
1673.0	0.0	-0.22101	0.89044	
1674.0	0.0	-0.2135	0.90637	
1675.0	0.0	-0.19922	0.92322	
1676.0	0.0	-0.18439	0.94116	
1677.0	0.0	-0.15985	0.9646	
1678.0	0.0	-0.13733	0.96936	
1679.0	0.0	-0.10876	1.008	
1680.0	0.0	-0.08734	1.03033	
1681.0	0.0	-0.06702	1.04901	
1682.0	0.0	-0.05603	1.05908	
1683.0	0.0	-0.04797	1.07135	
1684.0	0.0	-0.04907	1.08728	
1685.0	0.0	-0.0498	1.11145	
1686.0	0.0	-0.05511	1.12866	
1687.0	0.0	-0.0542	1.15393	
1688.0	0.0	-0.05658	1.15942	
1689.0	0.0	-0.052	1.18103	
1690.0	0.0	-0.05182	1.19202	
1691.0	0.0	-0.04614	1.20044	
1692.0	0.0	-0.0434	1.21582	
1693.0	0.0	-0.03442	1.22406	
1694.0	0.0	-0.02802	1.23541	
1695.0	0.0	-0.01611	1.24951	
1696.0	0.0	-0.00787	1.25574	
1697.0	0.0	0.00439	1.25519	
1698.0	0.0	0.01044	1.25702	
1699.0	0.0	0.01813	1.2605	
1700.0	0.0	0.01794	1.26562	
1701.0	0.0	0.01831	1.27075	
1702.0	0.0	0.01007	1.26526	
1703.0	0.0	0.00183	1.26855	
1704.0	0.0	-0.01611	1.2627	
1705.0	0.0	-0.03296	1.27277	
1706.0	0.0	-0.05676	1.26801	
1707.0	0.0	-0.07654	1.27295	
1708.0	0.0	-0.10199	1.27222	
1709.0	0.0	-0.12378	1.26892	
1710.0	0.0	-0.15015	1.26434	
1711.0	0.0	-0.17358	1.26581	
1712.0	0.0	-0.2005	1.2583	
1713.0	0.0	-0.22256	1.25262	
1714.0	0.0	-0.24792	1.24146	
1715.0	0.0	-0.2688	1.24951	
1716.0	0.0	-0.2937	1.24251	
1717.0	0.0	-0.31458	1.21907	
1718.0	0.0	-0.33875	1.23303	
1719.0	0.0	-0.35852	1.229	
1720.0	0.0	-0.38049	1.22369	
1721.0	0.0	-0.39752	1.22314	
1722.0	0.0	-0.41711	1.21619	
1723.0	0.0	-0.4325	1.22498	
1724.0	0.0	-0.45081	1.22406	
1725.0	0.0	-0.46463	1.22754	
1726.0	0.0	-0.48193	1.23083	
1727.0	0.0	-0.4953	1.24036	
1728.0	0.0	-0.5116	1.23669	
1729.0	0.0	-0.52386	1.24585	
1730.0	0.0	-0.53943	1.24219	
1731.0	0.0	-0.5517	1.25043	
1732.0	0.0	-0.56763	1.216	
1733.0	0.0	-0.58076	1.25061	
1734.0	0.0	-0.59839	1.24713	
1735.0	0.0	-0.61304	1.25391	
1736.0	0.0	-0.63309	1.25024	
1737.0	0.0	-0.65094	1.24658	
1738.0	0.0	-0.6731	1.26416	
1739.0	0.0	-0.69269	1.27039	
1740.0	0.0	-0.71521	1.26562	
1741.0	0.0	-0.73334	1.26746	
1742.0	0.0	-0.75439	1.26562	
1743.0	0.0	-0.77014	1.25922	
1744.0	0.0	-0.78662	1.25372	
1745.0	0.0	-0.79834	1.25423	
1746.0	0.0	-0.81129	1.24832	
1747.0	0.0	-0.81757	1.24548	
1748.0	0.0	-0.82558	1.25281	
1749.0	0.0	-0.827	1.25592	
1750.0	0.0	-0.82855	1.26123	
1751.0	0.0	-0.82214	1.2594	
1752.0	0.0	-0.81628	1.25208	
1753.0	0.0	-0.80273	1.26196	
1754.0	0.0	-0.79102	1.25208	
1755.0	0.0	-0.7738	1.25867	
1756.0	0.0	-0.75952	1.25739	
1757.0	0.0	-0.74139	1.25867	
1758.0	0.0	-0.72821	1.26233	
1759.0	0.0	-0.71265	1.26233	
1760.0	0.0	-0.70276	1.26105	
1761.0	0.0	-0.69012	1.25684	
1762.0	0.0	-0.68335	1.25171	
1763.0	0.0	-0.6731	1.2475	
1764.0	0.0	-0.66797	1.24251	
1765.0	0.0	-0.65991	1.24832	
1766.0	0.0	-0.65753	1.23669	
1767.0	0.0	-0.65222	1.23505	
1768.0	0.0	-0.65144	1.2226	
1769.0	0.0	-0.64801	1.21893	
1770.0	0.0	-0.64911	1.21252	
1771.0	0.0	-0.64709	1.20428	
1772.0	0.0	-0.64856	1.19513	
1773.0	0.0	-0.64417	1.18744	
1774.0	0.0	-0.64343	1.16931	
1775.0	0.0	-0.63666	1.16528	
1776.0	0.0	-0.63295	1.12793	
1777.0	0.0	-0.62421	1.14514	
1778.0	0.0	-0.61871	1.12527	
1779.0	0.0	-0.60828	1.11548	
1780.0	0.0	-0.60104	1.08838	
1781.0	0.0	-0.58978	1.08417	
1782.0	0.0	-0.58301	1.06421	
1783.0	0.0	-0.57367	1.04791	
1784.0	0.0	-0.56946	1.03821	
1785.0	0.0	-0.56342	1.02795	
1786.0	0.0	-0.5625	1.0144	
1787.0	0.0	-0.55884	0.97888	
1788.0	0.0	-0.56067	0.99298	
1789.0	0.0	-0.55847	0.98309	
1790.0	0.0	-0.56012	0.96716	
1791.0	0.0	-0.55865	0.96368	
1792.0	0.0	-0.5625	0.94775	
1793.0	0.0	-0.56195	0.94043	
1794.0	0.0	-0.56616	0.92725	
1795.0	0.0	-0.56616	0.9201	
1796.0	0.0	-0.56946	0.90674	
1797.0	0.0	-0.56873	0.89978	
1798.0	0.0	-0.57019	0.88806	
1799.0	0.0	-0.56799	0.87469	
1800.0	0.0	-0.56909	0.86316	
1801.0	0.0	-0.56671	0.86243	
1802.0	0.0	-0.56836	0.84705	
1803.0	0.0	-0.56689	0.84485	
1804.0	0.0	-0.57074	0.82489	
1805.0	0.0	-0.57074	0.81647	
1806.0	0.0	-0.57568	0.79834	
1807.0	0.0	-0.57678	0.76538	
1808.0	0.0	-0.58282	0.76025	
1809.0	0.0	-0.5863	0.74268	
1810.0	0.0	-0.59399	0.71393	
1811.0	0.0	-0.59985	0.71558	
1812.0	0.0	-0.60992	0.69891	
1813.0	0.0	-0.61615	0.65845	
1814.0	0.0	-0.62567	0.66321	
1815.0	0.0	-0.63135	0.65039	
1816.0	0.0	-0.64069	0.63428	
1817.0	0.0	-0.64618	0.62512	
1818.0	0.0	-0.65405	0.60443	
1819.0	0.0	-0.6579	0.59949	
1820.0	0.0	-0.66431	0.58026	
1821.0	0.0	-0.66742	0.57568	
1822.0	0.0	-0.6731	0.5592	
1823.0	0.0	-0.67493	0.5506	
1824.0	0.0	-0.67969	0.53485	
1825.0	0.0	-0.68115	0.52606	
1826.0	0.0	-0.68591	0.51636	
1827.0	0.0	-0.68793	0.50391	
1828.0	0.0	-0.69177	0.48175	
1829.0	0.0	-0.69159	0.48193	
1830.0	0.0	-0.69388	0.46399	
1831.0	0.0	-0.69159	0.45483	
1832.0	0.0	-0.69232	0.44055	
1833.0	0.0	-0.68994	0.43213	
1834.0	0.0	-0.69177	0.40192	
1835.0	0.0	-0.68971	0.40192	
1836.0	0.0	-0.69214	0.38965	
1837.0	0.0	-0.69086	0.38118	
1838.0	0.0	-0.69305	0.37152	
1839.0	0.0	-0.69214	0.36035	
1840.0	0.0	-0.6947	0.3468	
1841.0	0.0	-0.6936	0.33508	
1842.0	0.0	-0.69507	0.31934	
1843.0	0.0	-0.69315	0.28839	
1844.0	0.0	-0.69397	0.2926	
1845.0	0.0	-0.69067	0.28015	
1846.0	0.0	-0.68903	0.27008	
1847.0	0.0	-0.68225	0.25049	
1848.0	0.0	-0.67621	0.22266	
1849.0	0.0	-0.66412	0.21204	
1850.0	0.0	-0.65369	0.17651	
1851.0	0.0	-0.63904	0.17908	
1852.0	0.0	-0.62769	0.16663	
1853.0	0.0	-0.61304	0.15143	
1854.0	0.0	-0.6026	0.11792	
1855.0	0.0	-0.58978	0.12378	
1856.0	0.0	-0.58099	0.09375	
1857.0	0.0	-0.57001	0.09998	
1858.0	0.0	-0.56342	0.08057	
1859.0	0.0	-0.55408	0.0661	
1860.0	0.0	-0.54922	0.04871	
1861.0	0.0	-0.54163	0.04303	
1862.0	0.0	-0.53851	0.0271	
1863.0	0.0	-0.5332	0.01025	
1864.0	0.0	-0.53101	0.00256	
1865.0	0.0	-0.52625	-0.00037	
1866.0	0.0	-0.5257	-0.0184	
1867.0	0.0	-0.5213	-0.02051	
1868.0	0.0	-0.52094	-0.02802	
1869.0	0.0	-0.51855	-0.04376	
1870.0	0.0	-0.51965	-0.04211	
1871.0	0.0	-0.51801	-0.04395	
1872.0	0.0	-0.51892	-0.05731	
1873.0	0.0	-0.51819	-0.06152	
1874.0	0.0	-0.52185	-0.06775	
1875.0	0.0	-0.52478	-0.0683	
1876.0	0.0	-0.53229	-0.06757	
1877.0	0.0	-0.53723	-0.06999	
1878.0	0.0	-0.54657	-0.07104	
1879.0	0.0	-0.55334	-0.08276	
1880.0	0.0	-0.56337	-0.08423	
1881.0	0.0	-0.57037	-0.08716	
1882.0	0.0	-0.58044	-0.0997	
1883.0	0.0	-0.58667	-0.10327	
1884.0	0.0	-0.59546	-0.10812	
1885.0	0.0	-0.60059	-0.11124	
1886.0	0.0	-0.60901	-0.12671	
1887.0	0.0	-0.61377	-0.11856	
1888.0	0.0	-0.62311	-0.1236	
1889.0	0.0	-0.62915	-0.13293	
1890.0	0.0	-0.63757	-0.12927	
1891.0	0.0	-0.64252	-0.12909	
1892.0	0.0	-0.6498	-0.13953	
1893.0	0.0	-0.65277	-0.14191	
1894.0	0.0	-0.65735	-0.15216	
1895.0	0.0	-0.65863	-0.16589	
1896.0	0.0	-0.66211	-0.16461	
1897.0	0.0	-0.66321	-0.16754	
1898.0	0.0	-0.66632	-0.17102	
1899.0	0.0	-0.66632	-0.17546	
1900.0	0.0	-0.6698	-0.18668	
1901.0	0.0	-0.6698	-0.1778	
1902.0	0.0	-0.67273	-0.18567	
1903.0	0.0	-0.67255	-0.1864	
1904.0	0.0	-0.67474	-0.19775	
1905.0	0.0	-0.67346	-0.19189	
1906.0	0.0	-0.67456	-0.20361	
1907.0	0.0	-0.67255	-0.19684	
1908.0	0.0	-0.67401	-0.20892	
1909.0	0.0	-0.67236	-0.2049	
1910.0	0.0	-0.67328	-0.20197	
1911.0	0.0	-0.66962	-0.21167	
1912.0	0.0	-0.66847	-0.20087	
1913.0	0.0	-0.66357	-0.20673	
1914.0	0.0	-0.66138	-0.2038	
1915.0	0.0	-0.65533	-0.20306	
1916.0	0.0	-0.65131	-0.20599	
1917.0	0.0	-0.64288	-0.20673	
1918.0	0.0	-0.63629	-0.20691	
1919.0	0.0	-0.62512	-0.20636	
1920.0	0.0	-0.61652	-0.21021	
1921.0	0.0	-0.60571	-0.21249	
1922.0	0.0	-0.59857	-0.22632	
1923.0	0.0	-0.5885	-0.2168	
1924.0	0.0	-0.58438	-0.22083	
1925.0	0.0	-0.57843	-0.21725	
1926.0	0.0	-0.57605	-0.22202	
1927.0	0.0	-0.57257	-0.21387	
1928.0	0.0	-0.57312	-0.22412	
1929.0	0.0	-0.57147	-0.21387	
1930.0	0.0	-0.57239	-0.22559	
1931.0	0.0	-0.57019	-0.21808	
1932.0	0.0	-0.57092	-0.22961	
1933.0	0.0	-0.56818	-0.21899	
1934.0	0.0	-0.56689	-0.22559	
1935.0	0.0	-0.56177	-0.22247	
1936.0	0.0	-0.55811	-0.22064	
1937.0	0.0	-0.54968	-0.22449	
1938.0	0.0	-0.54309	-0.22192	
1939.0	0.0	-0.53174	-0.21808	
1940.0	0.0	-0.52295	-0.22852	
1941.0	0.0	-0.51196	-0.21533	
1942.0	0.0	-0.50409	-0.21542	
1943.0	0.0	-0.49347	-0.21497	
1944.0	0.0	-0.48596	-0.22119	
1945.0	0.0	-0.47607	-0.21844	
1946.0	0.0	-0.46976	-0.22147	
1947.0	0.0	-0.46124	-0.21533	
1948.0	0.0	-0.45502	-0.20856	
1949.0	0.0	-0.44678	-0.20618	
1950.0	0.0	-0.44165	-0.21268	
1951.0	0.0	-0.43378	-0.20325	
1952.0	0.0	-0.42883	-0.20801	
1953.0	0.0	-0.42279	-0.19537	
1954.0	0.0	-0.41968	-0.19592	
1955.0	0.0	-0.41345	-0.19006	
1956.0	0.0	-0.40924	-0.19739	
1957.0	0.0	-0.40283	-0.19427	
1958.0	0.0	-0.39954	-0.18906	
1959.0	0.0	-0.39368	-0.18457	
1960.0	0.0	-0.39038	-0.18365	
1961.0	0.0	-0.3847	-0.18658	
1962.0	0.0	-0.38086	-0.17963	
1963.0	0.0	-0.37463	-0.17853	
1964.0	0.0	-0.37061	-0.17267	
1965.0	0.0	-0.36429	-0.16946	
1966.0	0.0	-0.36145	-0.16516	
1967.0	0.0	-0.35724	-0.15051	
1968.0	0.0	-0.35669	-0.15088	
1969.0	0.0	-0.35559	-0.13751	
1970.0	0.0	-0.35651	-0.13715	
1971.0	0.0	-0.35522	-0.12817	
1972.0	0.0	-0.35669	-0.12231	
1973.0	0.0	-0.35541	-0.12488	
1974.0	0.0	-0.35742	-0.1214	
1975.0	0.0	-0.35687	-0.10767	
1976.0	0.0	-0.35999	-0.10968	
1977.0	0.0	-0.36035	-0.09979	
1978.0	0.0	-0.36456	-0.10822	
1979.0	0.0	-0.36566	-0.09558	
1980.0	0.0	-0.36969	-0.09668	
1981.0	0.0	-0.37061	-0.08661	
1982.0	0.0	-0.37537	-0.08807	
1983.0	0.0	-0.3783	-0.09137	
1984.0	0.0	-0.38434	-0.09229	
1985.0	0.0	-0.38873	-0.09064	
1986.0	0.0	-0.39587	-0.08313	
1987.0	0.0	-0.401	-0.08057	
1988.0	0.0	-0.40869	-0.09064	
1989.0	0.0	-0.41345	-0.07947	
1990.0	0.0	-0.42041	-0.08862	
1991.0	0.0	-0.42664	-0.08597	
1992.0	0.0	-0.43414	-0.0835	
1993.0	0.0	-0.4389	-0.08038	
1994.0	0.0	-0.44659	-0.08331	
1995.0	0.0	-0.45044	-0.08148	
1996.0	0.0	-0.45721	-0.0932	
1997.0	0.0	-0.46216	-0.09247	
1998.0	0.0	-0.46985	-0.08368	
1999.0	0.0	-0.47498	-0.07855	
2000.0	0.0	-0.48029	-0.08057	
2001.0	0.0	-0.48257	-0.08313	
2002.0	0.0	-0.48523	-0.08221	
2003.0	0.0	-0.48596	-0.07361	
2004.0	0.0	-0.48926	-0.07462	
2005.0	0.0	-0.49072	-0.07727	
2006.0	0.0	-0.49365	-0.06738	
2007.0	0.0	-0.49539	-0.06354	
2008.0	0.0	-0.49933	-0.0672	
2009.0	0.0	-0.49988	-0.06702	
2010.0	0.0	-0.50244	-0.06244	
2011.0	0.0	-0.50299	-0.05493	
2012.0	0.0	-0.50482	-0.0553	
2013.0	0.0	-0.50391	-0.06171	
2014.0	0.0	-0.50482	-0.05566	
2015.0	0.0	-0.50262	-0.0509	
2016.0	0.0	-0.50189	-0.05841	
2017.0	0.0	-0.49695	-0.05164	
2018.0	0.0	-0.49347	-0.05164	
2019.0	0.0	-0.48431	-0.04944	
2020.0	0.0	-0.47626	-0.0531	
2021.0	0.0	-0.46509	-0.05283	
2022.0	0.0	-0.45575	-0.06335	
2023.0	0.0	-0.44421	-0.06207	
2024.0	0.0	-0.43652	-0.05347	
2025.0	0.0	-0.42737	-0.05209	
2026.0	0.0	-0.42133	-0.05493	
2027.0	0.0	-0.41309	-0.0575	
2028.0	0.0	-0.40741	-0.06042	
2029.0	0.0	-0.39954	-0.06079	
2030.0	0.0	-0.39386	-0.06921	
2031.0	0.0	-0.38672	-0.06354	
2032.0	0.0	-0.38086	-0.06592	
2033.0	0.0	-0.37335	-0.06152	
2034.0	0.0	-0.36841	-0.06445	
2035.0	0.0	-0.36108	-0.06738	
2036.0	0.0	-0.35614	-0.07709	
2037.0	0.0	-0.34937	-0.07379	
2038.0	0.0	-0.34497	-0.08057	
2039.0	0.0	-0.33801	-0.08331	
2040.0	0.0	-0.33398	-0.09229	
2041.0	0.0	-0.32904	-0.10519	
2042.0	0.0	-0.32629	-0.11316	
2043.0	0.0	-0.32263	-0.11499	
2044.0	0.0	-0.32172	-0.11902	
2045.0	0.0	-0.3197	-0.12433	
2046.0	0.0	-0.3208	-0.13367	
2047.0	0.0	-0.31934	-0.1474	
2048.0	0.0	-0.32043	-0.14795	
2049.0	0.0	-0.32025	-0.1582	
2050.0	0.0	-0.32281	-0.16571	
2051.0	0.0	-0.32428	-0.17303	
2052.0	0.0	-0.32812	-0.18018	
2053.0	0.0	-0.33032	-0.1778	
2054.0	0.0	-0.33398	-0.18732	
2055.0	0.0	-0.33472	-0.18036	
2056.0	0.0	-0.336	-0.18732	
2057.0	0.0	-0.33435	-0.19043	
2058.0	0.0	-0.33472	-0.1989	
2059.0	0.0	-0.33215	-0.19189	
2060.0	0.0	-0.33289	-0.19336	
2061.0	0.0	-0.32996	-0.19272	
2062.0	0.0	-0.32904	-0.19281	
2063.0	0.0	-0.3252	-0.19025	
2064.0	0.0	-0.32263	-0.19089	
2065.0	0.0	-0.31787	-0.18677	
2066.0	0.0	-0.31348	-0.19189	
2067.0	0.0	-0.3067	-0.17487	
2068.0	0.0	-0.30057	-0.1767	
2069.0	0.0	-0.29187	-0.16374	
2070.0	0.0	-0.28455	-0.1615	
2071.0	0.0	-0.27484	-0.15344	
2072.0	0.0	-0.26825	-0.15326	
2073.0	0.0	-0.26001	-0.14429	
2074.0	0.0	-0.25415	-0.14136	
2075.0	0.0	-0.24792	-0.13879	
2076.0	0.0	-0.24408	-0.13348	
2077.0	0.0	-0.23987	-0.1236	
2078.0	0.0	-0.2373	-0.13019	
2079.0	0.0	-0.23355	-0.12469	
2080.0	0.0	-0.22998	-0.11334	
2081.0	0.0	-0.22339	-0.10803	
2082.0	0.0	-0.21826	-0.10675	
2083.0	0.0	-0.21094	-0.10858	
2084.0	0.0	-0.20581	-0.10693	
2085.0	0.0	-0.19739	-0.104	
2086.0	0.0	-0.19171	-0.10657	
2087.0	0.0	-0.18494	-0.10052	
2088.0	0.0	-0.18018	-0.09393	
2089.0	0.0	-0.17358	-0.08899	
2090.0	0.0	-0.17029	-0.08954	
2091.0	0.0	-0.16626	-0.09009	
2092.0	0.0	-0.16406	-0.0835	
2093.0	0.0	-0.1604	-0.07764	
2094.0	0.0	-0.15802	-0.08405	
2095.0	0.0	-0.15198	-0.07544	
2096.0	0.0	-0.14594	-0.08331	
2097.0	0.0	-0.1366	-0.07983	
2098.0	0.0	-0.12726	-0.07214	
2099.0	0.0	-0.11481	-0.06738	
2100.0	0.0	-0.10254	-0.06665	
2101.0	0.0	-0.08844	-0.06775	
2102.0	0.0	-0.07562	-0.06042	
2103.0	0.0	-0.06189	-0.05804	
2104.0	0.0	-0.05072	-0.05511	
2105.0	0.0	-0.03864	-0.05585	
2106.0	0.0	-0.0282	-0.05273	
2107.0	0.0	-0.01703	-0.04852	
2108.0	0.0	-0.00769	-0.04797	
2109.0	0.0	0.00146	-0.04761	
2110.0	0.0	0.00952	-0.04523	
2111.0	0.0	0.01758	-0.04395	
2112.0	0.0	0.02454	-0.04211	
2113.0	0.0	0.03296	-0.04138	
2114.0	0.0	0.04028	-0.04834	
2115.0	0.0	0.04871	-0.04449	
2116.0	0.0	0.0564	-0.04321	
2117.0	0.0	0.06409	-0.04248	
2118.0	0.0	0.07031	-0.03845	
2119.0	0.0	0.078	-0.03406	
2120.0	0.0	0.08203	-0.0325	
2121.0	0.0	0.08606	-0.02765	
2122.0	0.0	0.08533	-0.02509	
2123.0	0.0	0.0835	-0.01923	
2124.0	0.0	0.07874	-0.01611	
2125.0	0.0	0.07544	-0.01218	
2126.0	0.0	0.06995	-0.013	
2127.0	0.0	0.06592	-0.01318	
2128.0	0.0	0.06006	-0.01337	
2129.0	0.0	0.0542	-0.00769	
2130.0	0.0	0.04724	-0.01392	
2131.0	0.0	0.04102	-0.01172	
2132.0	0.0	0.03387	-0.00604	
2133.0	0.0	0.0282	-0.00861	
2134.0	0.0	0.02106	-0.0097	
2135.0	0.0	0.01611	-0.01611	
2136.0	0.0	0.0119	-0.01428	
2137.0	0.0	0.00916	-0.01721	
2138.0	0.0	0.00696	-0.02435	
2139.0	0.0	0.00623	-0.02637	
2140.0	0.0	0.00696	-0.026	
2141.0	0.0	0.00879	-0.02325	
2142.0	0.0	0.01245	-0.02655	
2143.0	0.0	0.01758	-0.02454	
2144.0	0.0	0.02344	-0.02765	
2145.0	0.0	0.02985	-0.02966	
2146.0	0.0	0.03644	-0.03406	
2147.0	0.0	0.04321	-0.03406	
2148.0	0.0	0.05072	-0.03882	
2149.0	0.0	0.05969	-0.04468	
2150.0	0.0	0.06921	-0.04358	
2151.0	0.0	0.07947	-0.05017	
2152.0	0.0	0.08954	-0.05475	
2153.0	0.0	0.09833	-0.06573	
2154.0	0.0	0.1084	-0.07507	
2155.0	0.0	0.11993	-0.08496	
2156.0	0.0	0.13257	-0.09686	
2157.0	0.0	0.14648	-0.10767	
2158.0	0.0	0.16022	-0.11957	
2159.0	0.0	0.17267	-0.12982	
2160.0	0.0	0.1864	-0.14008	
2161.0	0.0	0.19849	-0.15216	
2162.0	0.0	0.21021	-0.16168	
2163.0	0.0	0.21973	-0.16479	
2164.0	0.0	0.22852	-0.17615	
2165.0	0.0	0.23584	-0.17834	
2166.0	0.0	0.245	-0.18292	
2167.0	0.0	0.25232	-0.18311	
2168.0	0.0	0.26074	-0.18906	
2169.0	0.0	0.26843	-0.1897	
2170.0	0.0	0.27832	-0.18723	
2171.0	0.0	0.28949	-0.19409	
2172.0	0.0	0.30267	-0.18896	
2173.0	0.0	0.31824	-0.19647	
2174.0	0.0	0.33691	-0.20013	
2175.0	0.0	0.3576	-0.19739	
2176.0	0.0	0.38104	-0.19189	
2177.0	0.0	0.4054	-0.20105	
2178.0	0.0	0.43066	-0.20215	
2179.0	0.0	0.45483	-0.20563	
2180.0	0.0	0.47772	-0.20416	
2181.0	0.0	0.49878	-0.2049	
2182.0	0.0	0.52002	-0.20581	
2183.0	0.0	0.53943	-0.19409	
2184.0	0.0	0.5592	-0.20508	
2185.0	0.0	0.57751	-0.20544	
2186.0	0.0	0.59711	-0.19702	
2187.0	0.0	0.61523	-0.18915	
2188.0	0.0	0.63281	-0.19464	
2189.0	0.0	0.64819	-0.19803	
2190.0	0.0	0.66211	-0.19537	
2191.0	0.0	0.67383	-0.19244	
2192.0	0.0	0.68555	-0.18457	
2193.0	0.0	0.6958	-0.18384	
2194.0	0.0	0.70496	-0.17065	
2195.0	0.0	0.71265	-0.1756	
2196.0	0.0	0.71777	-0.16699	
2197.0	0.0	0.72144	-0.16278	
2198.0	0.0	0.72363	-0.15637	
2199.0	0.0	0.724	-0.14648	
2200.0	0.0	0.724	-0.1441	
2201.0	0.0	0.72217	-0.13495	
2202.0	0.0	0.71777	-0.13623	
2203.0	0.0	0.71136	-0.11243	
2204.0	0.0	0.70349	-0.11884	
2205.0	0.0	0.69379	-0.104	
2206.0	0.0	0.68335	-0.10144	
2207.0	0.0	0.6709	-0.0921	
2208.0	0.0	0.65918	-0.08478	
2209.0	0.0	0.64563	-0.08459	
2210.0	0.0	0.63318	-0.07269	
2211.0	0.0	0.62036	-0.06592	
2212.0	0.0	0.60754	-0.06299	
2213.0	0.0	0.59418	-0.05658	
2214.0	0.0	0.58044	-0.05457	
2215.0	0.0	0.56543	-0.04358	
2216.0	0.0	0.55005	-0.03534	
2217.0	0.0	0.53467	-0.02692	
2218.0	0.0	0.51929	-0.0119	
2219.0	0.0	0.50208	-0.00256	
2220.0	0.0	0.48413	0.00769	
2221.0	0.0	0.46527	0.0304	
2222.0	0.0	0.44824	0.04614	
2223.0	0.0	0.43066	0.06683	
2224.0	0.0	0.41638	0.08643	
2225.0	0.0	0.4043	0.104	
2226.0	0.0	0.39331	0.12103	
2227.0	0.0	0.38379	0.13509	
2228.0	0.0	0.375	0.14612	
2229.0	0.0	0.36456	0.15747	
2230.0	0.0	0.35413	0.16718	
2231.0	0.0	0.34406	0.17743	
2232.0	0.0	0.33582	0.1918	
2233.0	0.0	0.32886	0.20087	
2234.0	0.0	0.3219	0.20618	
2235.0	0.0	0.31348	0.21863	
2236.0	0.0	0.30615	0.21863	
2237.0	0.0	0.30103	0.22412	
2238.0	0.0	0.29681	0.22137	
2239.0	0.0	0.2926	0.22522	
2240.0	0.0	0.29095	0.22467	
2241.0	0.0	0.29022	0.22266	
2242.0	0.0	0.2937	0.21899	
2243.0	0.0	0.29773	0.22375	
2244.0	0.0	0.30469	0.2254	
2245.0	0.0	0.31348	0.22412	
2246.0	0.0	0.32373	0.21826	
2247.0	0.0	0.33398	0.22357	
2248.0	0.0	0.34515	0.21844	
2249.0	0.0	0.35669	0.22192	
2250.0	0.0	0.36877	0.21954	
2251.0	0.0	0.38049	0.22028	
2252.0	0.0	0.39423	0.21625	
2253.0	0.0	0.40613	0.22119	
2254.0	0.0	0.41876	0.22449	
2255.0	0.0	0.42865	0.22559	
2256.0	0.0	0.43909	0.22522	
2257.0	0.0	0.44714	0.23071	
2258.0	0.0	0.4563	0.23291	
2259.0	0.0	0.46216	0.23309	
2260.0	0.0	0.4682	0.23529	
2261.0	0.0	0.47314	0.2384	
2262.0	0.0	0.47534	0.23914	
2263.0	0.0	0.47717	0.23584	
2264.0	0.0	0.47937	0.23291	
2265.0	0.0	0.48083	0.2276	
2266.0	0.0	0.4834	0.22595	
2267.0	0.0	0.4834	0.22298	
2268.0	0.0	0.48669	0.2179	
2269.0	0.0	0.48853	0.21387	
2270.0	0.0	0.49438	0.20837	
2271.0	0.0	0.49896	0.20233	
2272.0	0.0	0.50702	0.19775	
2273.0	0.0	0.51434	0.19427	
2274.0	0.0	0.52332	0.1897	
2275.0	0.0	0.5321	0.18658	
2276.0	0.0	0.54089	0.18347	
2277.0	0.0	0.55005	0.18109	
2278.0	0.0	0.55957	0.1778	
2279.0	0.0	0.56763	0.17889	
2280.0	0.0	0.57605	0.17285	
2281.0	0.0	0.58264	0.1712	
2282.0	0.0	0.58887	0.17139	
2283.0	0.0	0.59235	0.16644	
2284.0	0.0	0.59619	0.16589	
2285.0	0.0	0.59802	0.16058	
2286.0	0.0	0.60095	0.15839	
2287.0	0.0	0.60132	0.15326	
2288.0	0.0	0.60388	0.15051	
2289.0	0.0	0.60388	0.14996	
2290.0	0.0	0.60443	0.14703	
2291.0	0.0	0.60425	0.14484	
2292.0	0.0	0.60461	0.14795	
2293.0	0.0	0.60425	0.15051	
2294.0	0.0	0.60535	0.15344	
2295.0	0.0	0.60278	0.15839	
2296.0	0.0	0.59985	0.1582	
2297.0	0.0	0.59399	0.16058	
2298.0	0.0	0.58978	0.16534	
2299.0	0.0	0.58521	0.16516	
2300.0	0.0	0.58154	0.16846	
2301.0	0.0	0.57495	0.16919	
2302.0	0.0	0.56708	0.1734	
2303.0	0.0	0.55865	0.17523	
2304.0	0.0	0.55078	0.17798	
2305.0	0.0	0.54291	0.18109	
2306.0	0.0	0.5376	0.18073	
2307.0	0.0	0.53394	0.18384	
2308.0	0.0	0.53302	0.1842	
2309.0	0.0	0.5332	0.1875	
2310.0	0.0	0.53687	0.18933	
2311.0	0.0	0.54126	0.19006	
2312.0	0.0	0.54785	0.19363	
2313.0	0.0	0.55554	0.19336	
2314.0	0.0	0.56433	0.19574	
2315.0	0.0	0.57239	0.19922	
2316.0	0.0	0.58411	0.19849	
2317.0	0.0	0.59253	0.19849	
2318.0	0.0	0.60388	0.19739	
2319.0	0.0	0.61267	0.20123	
2320.0	0.0	0.62183	0.19867	
2321.0	0.0	0.6286	0.20197	
2322.0	0.0	0.63647	0.2016	
2323.0	0.0	0.64087	0.20288	
2324.0	0.0	0.64819	0.20544	
2325.0	0.0	0.65131	0.20471	
2326.0	0.0	0.65588	0.20508	
2327.0	0.0	0.65881	0.20856	
2328.0	0.0	0.66138	0.20508	
2329.0	0.0	0.66174	0.20801	
2330.0	0.0	0.66211	0.20819	
2331.0	0.0	0.66174	0.20471	
2332.0	0.0	0.66174	0.20544	
2333.0	0.0	0.65918	0.20709	
2334.0	0.0	0.65881	0.20837	
2335.0	0.0	0.65552	0.20709	
2336.0	0.0	0.65369	0.20142	
2337.0	0.0	0.65057	0.20215	
2338.0	0.0	0.64783	0.20233	
2339.0	0.0	0.6427	0.20142	
2340.0	0.0	0.63721	0.20013	
2341.0	0.0	0.62988	0.19629	
2342.0	0.0	0.62329	0.19977	
2343.0	0.0	0.61523	0.19501	
2344.0	0.0	0.60828	0.19666	
2345.0	0.0	0.60022	0.19427	
2346.0	0.0	0.5929	0.19922	
2347.0	0.0	0.58411	0.2005	
2348.0	0.0	0.57532	0.20233	
2349.0	0.0	0.56543	0.2027	
2350.0	0.0	0.55664	0.20563	
2351.0	0.0	0.54492	0.20782	
2352.0	0.0	0.53558	0.20911	
2353.0	0.0	0.52551	0.21112	
2354.0	0.0	0.51654	0.21387	
2355.0	0.0	0.50702	0.21588	
2356.0	0.0	0.49841	0.21881	
2357.0	0.0	0.48926	0.22137	
2358.0	0.0	0.48285	0.22156	
2359.0	0.0	0.47552	0.2243	
2360.0	0.0	0.47168	0.22906	
2361.0	0.0	0.466	0.22943	
2362.0	0.0	0.46069	0.23016	
2363.0	0.0	0.45245	0.23328	
2364.0	0.0	0.44641	0.23163	
2365.0	0.0	0.43945	0.23657	
2366.0	0.0	0.43542	0.23785	
2367.0	0.0	0.4292	0.23364	
2368.0	0.0	0.42297	0.23877	
2369.0	0.0	0.41382	0.23676	
2370.0	0.0	0.40723	0.23987	
2371.0	0.0	0.3999	0.23822	
2372.0	0.0	0.39624	0.23822	
2373.0	0.0	0.39185	0.23254	
2374.0	0.0	0.39258	0.23621	
2375.0	0.0	0.39404	0.23621	
2376.0	0.0	0.39935	0.23602	
2377.0	0.0	0.40521	0.23808	
2378.0	0.0	0.41382	0.2406	
2379.0	0.0	0.42334	0.24078	
2380.0	0.0	0.43396	0.24463	
2381.0	0.0	0.44531	0.24426	
2382.0	0.0	0.4585	0.24353	
2383.0	0.0	0.47058	0.24207	
2384.0	0.0	0.4856	0.24042	
2385.0	0.0	0.49878	0.23987	
2386.0	0.0	0.51288	0.24207	
2387.0	0.0	0.52515	0.23932	
2388.0	0.0	0.53833	0.2428	
2389.0	0.0	0.54968	0.24353	
2390.0	0.0	0.56177	0.24545	
2391.0	0.0	0.57275	0.24591	
2392.0	0.0	0.58374	0.24829	
2393.0	0.0	0.59253	0.25031	
2394.0	0.0	0.60095	0.25296	
2395.0	0.0	0.60754	0.25507	
2396.0	0.0	0.61469	0.25781	
2397.0	0.0	0.61853	0.26001	
2398.0	0.0	0.62366	0.26184	
2399.0	0.0	0.62732	0.26349	
2400.0	0.0	0.63208	0.26605	
2401.0	0.0	0.63501	0.26459	
2402.0	0.0	0.63867	0.2666	
2403.0	0.0	0.6394	0.26788	
2404.0	0.0	0.6416	0.26605	
2405.0	0.0	0.64014	0.26514	
2406.0	0.0	0.6394	0.26752	
2407.0	0.0	0.63574	0.27026	
2408.0	0.0	0.63245	0.27228	
2409.0	0.0	0.62823	0.27283	
2410.0	0.0	0.62585	0.27539	
2411.0	0.0	0.62183	0.27795	
2412.0	0.0	0.61908	0.27887	
2413.0	0.0	0.61414	0.28107	
2414.0	0.0	0.60974	0.28198	
2415.0	0.0	0.60406	0.28253	
2416.0	0.0	0.59857	0.28436	
2417.0	0.0	0.59143	0.28656	
2418.0	0.0	0.58594	0.28748	
2419.0	0.0	0.57861	0.28857	
2420.0	0.0	0.57239	0.29004	
2421.0	0.0	0.56561	0.29114	
2422.0	0.0	0.56049	0.2926	
2423.0	0.0	0.55371	0.29462	
2424.0	0.0	0.54858	0.29498	
2425.0	0.0	0.54382	0.29608	
2426.0	0.0	0.54199	0.297	
2427.0	0.0	0.53979	0.29938	
2428.0	0.0	0.53723	0.30231	
2429.0	0.0	0.53302	0.30231	
2430.0	0.0	0.52844	0.30487	
2431.0	0.0	0.52295	0.30267	
2432.0	0.0	0.52002	0.30377	
2433.0	0.0	0.51709	0.30487	
2434.0	0.0	0.51434	0.30496	
2435.0	0.0	0.50684	0.30249	
2436.0	0.0	0.50006	0.29956	
2437.0	0.0	0.49365	0.30194	
2438.0	0.0	0.48962	0.29681	
2439.0	0.0	0.48596	0.29443	
2440.0	0.0	0.4856	0.29791	
2441.0	0.0	0.48578	0.2948	
2442.0	0.0	0.49072	0.29517	
2443.0	0.0	0.49585	0.29572	
2444.0	0.0	0.50482	0.297	
2445.0	0.0	0.51416	0.29938	
2446.0	0.0	0.52478	0.30267	
2447.0	0.0	0.53613	0.30341	
2448.0	0.0	0.54822	0.30396	
2449.0	0.0	0.55957	0.30176	
2450.0	0.0	0.57275	0.30121	
2451.0	0.0	0.58447	0.29865	
2452.0	0.0	0.59784	0.29681	
2453.0	0.0	0.60901	0.2948	
2454.0	0.0	0.62036	0.29553	
2455.0	0.0	0.62842	0.29425	
2456.0	0.0	0.63831	0.29425	
2457.0	0.0	0.646	0.29407	
2458.0	0.0	0.65552	0.29517	
2459.0	0.0	0.66211	0.29443	
2460.0	0.0	0.66943	0.29645	
2461.0	0.0	0.67419	0.29572	
2462.0	0.0	0.67859	0.29535	
2463.0	0.0	0.68079	0.29443	
2464.0	0.0	0.68262	0.29425	
2465.0	0.0	0.68262	0.29242	
2466.0	0.0	0.68317	0.29132	
2467.0	0.0	0.68335	0.28857	
2468.0	0.0	0.68372	0.28876	
2469.0	0.0	0.68298	0.28784	
2470.0	0.0	0.68152	0.28308	
2471.0	0.0	0.67767	0.27979	
2472.0	0.0	0.6731	0.2796	
2473.0	0.0	0.66577	0.2774	
2474.0	0.0	0.65955	0.27924	
2475.0	0.0	0.65057	0.27649	
2476.0	0.0	0.64343	0.27521	
2477.0	0.0	0.63538	0.27502	
2478.0	0.0	0.62988	0.27411	
2479.0	0.0	0.62146	0.27301	
2480.0	0.0	0.61523	0.27319	
2481.0	0.0	0.60754	0.27063	
2482.0	0.0	0.60022	0.27026	
2483.0	0.0	0.59033	0.27026	
2484.0	0.0	0.58191	0.26898	
2485.0	0.0	0.57147	0.26917	
2486.0	0.0	0.5636	0.26898	
2487.0	0.0	0.55444	0.26642	
2488.0	0.0	0.54858	0.2655	
2489.0	0.0	0.54071	0.26459	
2490.0	0.0	0.53503	0.2644	
2491.0	0.0	0.52917	0.26184	
2492.0	0.0	0.52478	0.26221	
2493.0	0.0	0.52075	0.26385	
2494.0	0.0	0.51892	0.26331	
2495.0	0.0	0.51343	0.26312	
2496.0	0.0	0.50684	0.26404	
2497.0	0.0	0.49951	0.26312	
2498.0	0.0	0.49585	0.26276	
2499.0	0.0	0.49109	0.26038	
2500.0	0.0	0.48907	0.26093	
2501.0	0.0	0.4823	0.258	
2502.0	0.0	0.47534	0.26074	
2503.0	0.0	0.4682	0.26001	
2504.0	0.0	0.46344	0.26001	
2505.0	0.0	0.4585	0.25562	
2506.0	0.0	0.45703	0.25928	
2507.0	0.0	0.45557	0.258	
2508.0	0.0	0.45923	0.25964	
2509.0	0.0	0.46362	0.26001	
2510.0	0.0	0.47205	0.26111	
2511.0	0.0	0.4812	0.25813	
2512.0	0.0	0.49365	0.26367	
2513.0	0.0	0.505	0.26569	
2514.0	0.0	0.51855	0.26624	
2515.0	0.0	0.52991	0.26477	
2516.0	0.0	0.54382	0.26294	
2517.0	0.0	0.55518	0.25781	
2518.0	0.0	0.56873	0.25708	
2519.0	0.0	0.5799	0.2547	
2520.0	0.0	0.59143	0.25452	
2521.0	0.0	0.60132	0.25177	
2522.0	0.0	0.61121	0.25232	
2523.0	0.0	0.61816	0.25287	
2524.0	0.0	0.62769	0.25214	
2525.0	0.0	0.63501	0.25452	
2526.0	0.0	0.64307	0.25433	
2527.0	0.0	0.64929	0.25644	
2528.0	0.0	0.65479	0.2547	
2529.0	0.0	0.65735	0.2569	
2530.0	0.0	0.66101	0.25562	
2531.0	0.0	0.66156	0.25269	
2532.0	0.0	0.66339	0.25287	
2533.0	0.0	0.66449	0.25067	
2534.0	0.0	0.66724	0.25049	
2535.0	0.0	0.66833	0.24829	
2536.0	0.0	0.6709	0.24683	
2537.0	0.0	0.66943	0.24646	
2538.0	0.0	0.66833	0.24811	
2539.0	0.0	0.66541	0.24261	
2540.0	0.0	0.66064	0.24097	
2541.0	0.0	0.65442	0.23969	
2542.0	0.0	0.64966	0.23932	
2543.0	0.0	0.64233	0.23712	
2544.0	0.0	0.63812	0.23914	
2545.0	0.0	0.63062	0.23877	
2546.0	0.0	0.62476	0.23914	
2547.0	0.0	0.61615	0.23877	
2548.0	0.0	0.60864	0.24055	
2549.0	0.0	0.59912	0.23914	
2550.0	0.0	0.59161	0.23703	
2551.0	0.0	0.58008	0.23785	
2552.0	0.0	0.57129	0.23822	
2553.0	0.0	0.5603	0.23877	
2554.0	0.0	0.5528	0.24023	
2555.0	0.0	0.54364	0.24115	
2556.0	0.0	0.53613	0.2428	
2557.0	0.0	0.52734	0.24298	
2558.0	0.0	0.52039	0.24609	
2559.0	0.0	0.51233	0.24628	
2560.0	0.0	0.50684	0.24774	
2561.0	0.0	0.50024	0.24591	
2562.0	0.0	0.49475	0.24637	
2563.0	0.0	0.48413	0.24481	
2564.0	0.0	0.47424	0.24362	
2565.0	0.0	0.46509	0.2417	
2566.0	0.0	0.45813	0.24554	
2567.0	0.0	0.4519	0.2439	
2568.0	0.0	0.44604	0.24371	
2569.0	0.0	0.43469	0.24426	
2570.0	0.0	0.42554	0.2439	
2571.0	0.0	0.4162	0.24683	
2572.0	0.0	0.40906	0.25031	
2573.0	0.0	0.40155	0.245	
2574.0	0.0	0.39771	0.24939	
2575.0	0.0	0.39404	0.24719	
2576.0	0.0	0.39551	0.24628	
2577.0	0.0	0.39752	0.24756	
2578.0	0.0	0.40356	0.25287	
2579.0	0.0	0.40833	0.25525	
2580.0	0.0	0.41602	0.2558	
2581.0	0.0	0.42297	0.2569	
2582.0	0.0	0.43176	0.26202	
2583.0	0.0	0.43835	0.25909	
2584.0	0.0	0.44751	0.25854	
2585.0	0.0	0.4541	0.25635	
2586.0	0.0	0.46289	0.25543	
2587.0	0.0	0.46875	0.25287	
2588.0	0.0	0.47552	0.25232	
2589.0	0.0	0.479	0.25049	
2590.0	0.0	0.4834	0.25049	
2591.0	0.0	0.4856	0.24756	
2592.0	0.0	0.48926	0.24609	
2593.0	0.0	0.49072	0.24133	
2594.0	0.0	0.49292	0.24152	
2595.0	0.0	0.49182	0.23676	
2596.0	0.0	0.49109	0.23712	
2597.0	0.0	0.48743	0.23364	
2598.0	0.0	0.4845	0.23401	
2599.0	0.0	0.47864	0.23163	
2600.0	0.0	0.47461	0.22852	
2601.0	0.0	0.46912	0.22705	
2602.0	0.0	0.46582	0.22595	
2603.0	0.0	0.45923	0.22247	
2604.0	0.0	0.45483	0.21973	
2605.0	0.0	0.44769	0.21423	
2606.0	0.0	0.44037	0.21185	
2607.0	0.0	0.42993	0.21112	
2608.0	0.0	0.42151	0.20929	
2609.0	0.0	0.40997	0.20691	
2610.0	0.0	0.40063	0.20435	
2611.0	0.0	0.38892	0.20215	
2612.0	0.0	0.38013	0.2016	
2613.0	0.0	0.37042	0.19812	
2614.0	0.0	0.36182	0.19299	
2615.0	0.0	0.35193	0.19299	
2616.0	0.0	0.34351	0.19125	
2617.0	0.0	0.33325	0.18567	
2618.0	0.0	0.3252	0.17999	
2619.0	0.0	0.31494	0.17908	
2620.0	0.0	0.30634	0.1756	
2621.0	0.0	0.29553	0.16589	
2622.0	0.0	0.28711	0.16937	
2623.0	0.0	0.27612	0.16333	
2624.0	0.0	0.26807	0.1604	
2625.0	0.0	0.25781	0.15747	
2626.0	0.0	0.24994	0.1474	
2627.0	0.0	0.24023	0.14539	
2628.0	0.0	0.23236	0.13623	
2629.0	0.0	0.22321	0.13385	
2630.0	0.0	0.2168	0.12726	
2631.0	0.0	0.21021	0.12598	
2632.0	0.0	0.20581	0.12048	
2633.0	0.0	0.19775	0.1192	
2634.0	0.0	0.19006	0.1181	
2635.0	0.0	0.18274	0.1095	
2636.0	0.0	0.17834	0.10419	
2637.0	0.0	0.1723	0.10016	
2638.0	0.0	0.16919	0.10254	
2639.0	0.0	0.16077	0.09338	
2640.0	0.0	0.15271	0.09595	
2641.0	0.0	0.14484	0.08917	
2642.0	0.0	0.13843	0.09	
2643.0	0.0	0.13037	0.08496	
2644.0	0.0	0.12561	0.09137	
2645.0	0.0	0.12122	0.08899	
2646.0	0.0	0.12231	0.08844	
2647.0	0.0	0.12451	0.08899	
2648.0	0.0	0.13037	0.09064	
2649.0	0.0	0.13586	0.09192	
2650.0	0.0	0.14429	0.0976	
2651.0	0.0	0.15161	0.10455	
2652.0	0.0	0.16132	0.10162	
2653.0	0.0	0.16937	0.10016	
2654.0	0.0	0.17908	0.09796	
2655.0	0.0	0.1875	0.09137	
2656.0	0.0	0.19519	0.08551	
2657.0	0.0	0.19812	0.08112	
2658.0	0.0	0.19995	0.08002	
2659.0	0.0	0.19629	0.07617	
2660.0	0.0	0.19116	0.0705	
2661.0	0.0	0.18054	0.06226	
2662.0	0.0	0.17065	0.06262	
2663.0	0.0	0.15784	0.05621	
2664.0	0.0	0.1452	0.05072	
2665.0	0.0	0.1311	0.0472	
2666.0	0.0	0.12048	0.03992	
2667.0	0.0	0.10858	0.03845	
2668.0	0.0	0.10107	0.03314	
2669.0	0.0	0.09155	0.03113	
2670.0	0.0	0.08698	0.02728	
2671.0	0.0	0.0802	0.01831	
2672.0	0.0	0.07764	0.02087	
2673.0	0.0	0.07361	0.01611	
2674.0	0.0	0.07324	0.01538	
2675.0	0.0	0.07141	0.00934	
2676.0	0.0	0.07141	0.01025	
2677.0	0.0	0.06866	0.00934	
2678.0	0.0	0.06738	0.01996	
2679.0	0.0	0.06427	0.02289	
2680.0	0.0	0.06207	0.0293	
2681.0	0.0	0.05933	0.02637	
2682.0	0.0	0.05859	0.04047	
2683.0	0.0	0.0553	0.04523	
2684.0	0.0	0.0542	0.04706	
2685.0	0.0	0.0509	0.05621	
2686.0	0.0	0.04871	0.06555	
2687.0	0.0	0.04248	0.06976	
2688.0	0.0	0.03845	0.0835	
2689.0	0.0	0.0304	0.08826	
2690.0	0.0	0.0238	0.09393	
2691.0	0.0	0.01392	0.0976	
2692.0	0.0	0.00659	0.10144	
2693.0	0.0	-0.00476	0.10272	
2694.0	0.0	-0.01447	0.10291	
2695.0	0.0	-0.02582	0.10437	
2696.0	0.0	-0.03479	0.1095	
2697.0	0.0	-0.04523	0.11206	
2698.0	0.0	-0.05328	0.10748	
2699.0	0.0	-0.06207	0.10968	
2700.0	0.0	-0.06738	0.1192	
2701.0	0.0	-0.07562	0.117	
2702.0	0.0	-0.07837	0.13165	
2703.0	0.0	-0.08203	0.13513	
2704.0	0.0	-0.08258	0.14209	
2705.0	0.0	-0.08606	0.14095	
2706.0	0.0	-0.08643	0.1507	
2707.0	0.0	-0.08569	0.15582	
2708.0	0.0	-0.08075	0.15912	
2709.0	0.0	-0.07672	0.15472	
2710.0	0.0	-0.06995	0.16113	
2711.0	0.0	-0.06628	0.16479	
2712.0	0.0	-0.06281	0.18091	
2713.0	0.0	-0.06079	0.18457	
2714.0	0.0	-0.05713	0.18622	
2715.0	0.0	-0.05493	0.18347	
2716.0	0.0	-0.05054	0.19363	
2717.0	0.0	-0.04651	0.19537	
2718.0	0.0	-0.03772	0.20618	
2719.0	0.0	-0.0293	0.20966	
2720.0	0.0	-0.01703	0.21533	
2721.0	0.0	-0.00549	0.21661	
2722.0	0.0	0.00842	0.22321	
2723.0	0.0	0.02051	0.22284	
2724.0	0.0	0.03552	0.23181	
2725.0	0.0	0.04907	0.2265	
2726.0	0.0	0.06519	0.23639	
2727.0	0.0	0.08057	0.23547	
2728.0	0.0	0.09869	0.23199	
2729.0	0.0	0.11572	0.23053	
2730.0	0.0	0.13477	0.245	
2731.0	0.0	0.15088	0.24756	
2732.0	0.0	0.16846	0.24591	
2733.0	0.0	0.18329	0.25813	
2734.0	0.0	0.2005	0.26459	
2735.0	0.0	0.21405	0.26898	
2736.0	0.0	0.2298	0.26917	
2737.0	0.0	0.24243	0.28088	
2738.0	0.0	0.25525	0.28857	
2739.0	0.0	0.26587	0.28345	
2740.0	0.0	0.27759	0.28821	
2741.0	0.0	0.28564	0.29425	
2742.0	0.0	0.29608	0.2981	
2743.0	0.0	0.30322	0.29883	
2744.0	0.0	0.31055	0.29736	
2745.0	0.0	0.31494	0.29846	
2746.0	0.0	0.32025	0.29938	
2747.0	0.0	0.323	0.2959	
2748.0	0.0	0.32666	0.28857	
2749.0	0.0	0.32776	0.28473	
2750.0	0.0	0.33051	0.29041	
2751.0	0.0	0.33105	0.28455	
2752.0	0.0	0.33307	0.27905	
2753.0	0.0	0.33362	0.2829	
2754.0	0.0	0.33765	0.28235	
2755.0	0.0	0.33966	0.28198	
2756.0	0.0	0.3446	0.28033	
2757.0	0.0	0.34735	0.27649	
2758.0	0.0	0.35303	0.2807	
2759.0	0.0	0.35522	0.27448	
2760.0	0.0	0.36035	0.27393	
2761.0	0.0	0.36255	0.2774	
2762.0	0.0	0.36694	0.2785	
2763.0	0.0	0.36877	0.27795	
2764.0	0.0	0.3728	0.27429	
2765.0	0.0	0.37427	0.27612	
2766.0	0.0	0.37738	0.27979	
2767.0	0.0	0.37592	0.28143	
2768.0	0.0	0.37537	0.28491	
2769.0	0.0	0.37097	0.28473	
2770.0	0.0	0.36639	0.29114	
2771.0	0.0	0.35852	0.29443	
2772.0	0.0	0.35175	0.29846	
2773.0	0.0	0.34094	0.3035	
2774.0	0.0	0.33179	0.31384	
2775.0	0.0	0.31934	0.31842	
2776.0	0.0	0.31055	0.32648	
2777.0	0.0	0.29846	0.32574	
2778.0	0.0	0.28967	0.33087	
2779.0	0.0	0.27869	0.3338	
2780.0	0.0	0.271	0.33417	
2781.0	0.0	0.26184	0.33105	
2782.0	0.0	0.25488	0.32959	
2783.0	0.0	0.24756	0.33783	
2784.0	0.0	0.24152	0.33545	
2785.0	0.0	0.23218	0.34021	
2786.0	0.0	0.22449	0.34186	
2787.0	0.0	0.21606	0.34387	
2788.0	0.0	0.20966	0.33893	
2789.0	0.0	0.20288	0.33472	
2790.0	0.0	0.19885	0.33344	
2791.0	0.0	0.19226	0.32996	
2792.0	0.0	0.1875	0.34039	
2793.0	0.0	0.18164	0.33984	
2794.0	0.0	0.17834	0.33215	
2795.0	0.0	0.17358	0.33069	
2796.0	0.0	0.17303	0.34058	
2797.0	0.0	0.17249	0.3327	
2798.0	0.0	0.17688	0.33527	
2799.0	0.0	0.18127	0.33746	
2800.0	0.0	0.19006	0.33856	
2801.0	0.0	0.19885	0.32794	
2802.0	0.0	0.2113	0.33783	
2803.0	0.0	0.22229	0.33746	
2804.0	0.0	0.23639	0.33215	
2805.0	0.0	0.24756	0.33325	
2806.0	0.0	0.26074	0.32977	
2807.0	0.0	0.271	0.32845	
2808.0	0.0	0.28345	0.3197	
2809.0	0.0	0.29242	0.31567	
2810.0	0.0	0.30322	0.31467	
2811.0	0.0	0.31091	0.31989	
2812.0	0.0	0.32098	0.31146	
2813.0	0.0	0.32812	0.30981	
2814.0	0.0	0.33893	0.31476	
2815.0	0.0	0.34753	0.30487	
2816.0	0.0	0.35852	0.30743	
2817.0	0.0	0.36658	0.30176	
2818.0	0.0	0.37701	0.30396	
2819.0	0.0	0.38397	0.29324	
2820.0	0.0	0.39368	0.297	
2821.0	0.0	0.40063	0.28949	
2822.0	0.0	0.40942	0.28235	
2823.0	0.0	0.41602	0.28052	
2824.0	0.0	0.42627	0.27594	
2825.0	0.0	0.43359	0.26807	
2826.0	0.0	0.44385	0.26147	
2827.0	0.0	0.45117	0.25232	
2828.0	0.0	0.46179	0.24261	
2829.0	0.0	0.4682	0.23364	
2830.0	0.0	0.47809	0.22668	
2831.0	0.0	0.4845	0.21698	
2832.0	0.0	0.49402	0.21021	
2833.0	0.0	0.49915	0.19977	
2834.0	0.0	0.50793	0.19281	
2835.0	0.0	0.5127	0.18164	
2836.0	0.0	0.5202	0.1734	
2837.0	0.0	0.52386	0.16351	
2838.0	0.0	0.52899	0.15491	
2839.0	0.0	0.52844	0.14465	
2840.0	0.0	0.52917	0.1377	
2841.0	0.0	0.5246	0.12927	
2842.0	0.0	0.52148	0.12506	
2843.0	0.0	0.5127	0.11371	
2844.0	0.0	0.505	0.10986	
2845.0	0.0	0.49292	0.10327	
2846.0	0.0	0.48285	0.10217	
2847.0	0.0	0.4693	0.09467	
2848.0	0.0	0.4585	0.091	
2849.0	0.0	0.44476	0.08423	
2850.0	0.0	0.43176	0.0835	
2851.0	0.0	0.41528	0.07709	
2852.0	0.0	0.401	0.07452	
2853.0	0.0	0.38251	0.06958	
2854.0	0.0	0.36566	0.06702	
2855.0	0.0	0.34625	0.06189	
2856.0	0.0	0.32941	0.06006	
2857.0	0.0	0.31	0.0553	
2858.0	0.0	0.29407	0.05255	
2859.0	0.0	0.27429	0.04852	
2860.0	0.0	0.25891	0.04779	
2861.0	0.0	0.24097	0.04413	
2862.0	0.0	0.22723	0.04266	
2863.0	0.0	0.21167	0.04047	
2864.0	0.0	0.19922	0.04486	
2865.0	0.0	0.18274	0.04303	
2866.0	0.0	0.16956	0.04303	
2867.0	0.0	0.15472	0.03992	
2868.0	0.0	0.14392	0.03992	
2869.0	0.0	0.13184	0.039	
2870.0	0.0	0.12378	0.03937	
2871.0	0.0	0.11206	0.03442	
2872.0	0.0	0.10364	0.03589	
2873.0	0.0	0.09375	0.03259	
2874.0	0.0	0.08643	0.02747	
2875.0	0.0	0.07837	0.0249	
2876.0	0.0	0.07324	0.02527	
2877.0	0.0	0.06665	0.02435	
2878.0	0.0	0.06628	0.0347	
2879.0	0.0	0.06409	0.03442	
2880.0	0.0	0.06683	0.03699	
2881.0	0.0	0.06885	0.03497	
2882.0	0.0	0.07507	0.0412	
2883.0	0.0	0.07983	0.04559	
2884.0	0.0	0.08789	0.0472	
2885.0	0.0	0.09338	0.04504	
2886.0	0.0	0.10107	0.0472	
2887.0	0.0	0.10675	0.04706	
2888.0	0.0	0.11499	0.04175	
2889.0	0.0	0.12012	0.04303	
2890.0	0.0	0.12744	0.04486	
2891.0	0.0	0.1311	0.04669	
2892.0	0.0	0.13678	0.0542	
2893.0	0.0	0.13989	0.05173	
2894.0	0.0	0.1474	0.06207	
2895.0	0.0	0.15216	0.06152	
2896.0	0.0	0.15912	0.06464	
2897.0	0.0	0.16223	0.06555	
2898.0	0.0	0.16846	0.0694	
2899.0	0.0	0.17065	0.06812	
2900.0	0.0	0.17578	0.0705	
2901.0	0.0	0.17743	0.06885	
2902.0	0.0	0.18182	0.07068	
2903.0	0.0	0.18292	0.07581	
2904.0	0.0	0.1875	0.07965	
2905.0	0.0	0.18915	0.07397	
2906.0	0.0	0.19409	0.07928	
2907.0	0.0	0.19537	0.07471	
2908.0	0.0	0.19867	0.07562	
2909.0	0.0	0.19775	0.07581	
2910.0	0.0	0.19922	0.08194	
2911.0	0.0	0.19702	0.07782	
2912.0	0.0	0.19684	0.08258	
2913.0	0.0	0.19336	0.0802	
2914.0	0.0	0.19318	0.0824	
2915.0	0.0	0.19098	0.07837	
2916.0	0.0	0.19043	0.0835	
2917.0	0.0	0.18677	0.07947	
2918.0	0.0	0.18604	0.08276	
2919.0	0.0	0.18164	0.08002	
2920.0	0.0	0.17944	0.08057	
2921.0	0.0	0.17468	0.07965	
2922.0	0.0	0.17285	0.07507	
2923.0	0.0	0.16827	0.07672	
2924.0	0.0	0.16736	0.07599	
2925.0	0.0	0.16333	0.07745	
2926.0	0.0	0.1626	0.07983	
2927.0	0.0	0.1582	0.0769	
2928.0	0.0	0.1571	0.07251	
2929.0	0.0	0.15271	0.07562	
2930.0	0.0	0.15051	0.07397	
2931.0	0.0	0.1452	0.07141	
2932.0	0.0	0.14429	0.07471	
2933.0	0.0	0.13934	0.07251	
2934.0	0.0	0.13715	0.07361	
2935.0	0.0	0.13129	0.07434	
2936.0	0.0	0.12762	0.07031	
2937.0	0.0	0.12085	0.07434	
2938.0	0.0	0.11719	0.0769	
2939.0	0.0	0.11005	0.07819	
2940.0	0.0	0.1062	0.07397	
2941.0	0.0	0.09961	0.0813	
2942.0	0.0	0.09631	0.08478	
2943.0	0.0	0.09045	0.078	
2944.0	0.0	0.08917	0.08167	
2945.0	0.0	0.08569	0.0835	
2946.0	0.0	0.08606	0.09229	
2947.0	0.0	0.08221	0.09503	
2948.0	0.0	0.07983	0.09247	
2949.0	0.0	0.07599	0.09741	
2950.0	0.0	0.07764	0.10364	
2951.0	0.0	0.07764	0.09787	
2952.0	0.0	0.08148	0.10364	
2953.0	0.0	0.08093	0.09998	
2954.0	0.0	0.08075	0.09869	
2955.0	0.0	0.0769	0.09558	
2956.0	0.0	0.07654	0.09686	
2957.0	0.0	0.07361	0.09375	
2958.0	0.0	0.07617	0.09631	
2959.0	0.0	0.07654	0.09302	
2960.0	0.0	0.0835	0.09631	
2961.0	0.0	0.08936	0.09229	
2962.0	0.0	0.09961	0.09485	
2963.0	0.0	0.10767	0.08771	
2964.0	0.0	0.11993	0.09576	
2965.0	0.0	0.13019	0.09521	
2966.0	0.0	0.14319	0.09814	
2967.0	0.0	0.15381	0.09229	
2968.0	0.0	0.16736	0.0954	
2969.0	0.0	0.17798	0.08954	
2970.0	0.0	0.19189	0.09027	
2971.0	0.0	0.20251	0.08276	
2972.0	0.0	0.21497	0.08524	
2973.0	0.0	0.22266	0.08002	
2974.0	0.0	0.23236	0.0802	
2975.0	0.0	0.23767	0.08093	
2976.0	0.0	0.24518	0.07745	
2977.0	0.0	0.24902	0.07654	
2978.0	0.0	0.25525	0.07965	
2979.0	0.0	0.25598	0.07672	
2980.0	0.0	0.25891	0.07819	
2981.0	0.0	0.2569	0.07269	
2982.0	0.0	0.25708	0.07507	
2983.0	0.0	0.25305	0.07123	
2984.0	0.0	0.25031	0.06757	
2985.0	0.0	0.24353	0.0661	
2986.0	0.0	0.2417	0.06317	
2987.0	0.0	0.23657	0.0575	
2988.0	0.0	0.23383	0.05891	
2989.0	0.0	0.22852	0.05585	
2990.0	0.0	0.22595	0.05127	
2991.0	0.0	0.21973	0.04797	
2992.0	0.0	0.21552	0.05109	
2993.0	0.0	0.20801	0.04797	
2994.0	0.0	0.20288	0.04578	
2995.0	0.0	0.19556	0.04706	
2996.0	0.0	0.19135	0.04816	
2997.0	0.0	0.18457	0.04889	
2998.0	0.0	0.18164	0.04962	
2999.0	0.0	0.17578	0.04907	
3000.0	0.0	0.17395	0.04614	
3001.0	0.0	0.16864	0.04541	
3002.0	0.0	0.16882	0.04404	
3003.0	0.0	0.16461	0.04431	
3004.0	0.0	0.16479	0.04706	
3005.0	0.0	0.16241	0.04358	
3006.0	0.0	0.16553	0.04651	
3007.0	0.0	0.16772	0.04651	
3008.0	0.0	0.17505	0.05035	
3009.0	0.0	0.18018	0.05292	
3010.0	0.0	0.19061	0.06006	
3011.0	0.0	0.19739	0.06372	
3012.0	0.0	0.20764	0.06665	
3013.0	0.0	0.21277	0.07617	
3014.0	0.0	0.22211	0.08661	
3015.0	0.0	0.22961	0.09357	
3016.0	0.0	0.2395	0.10767	
3017.0	0.0	0.24756	0.12012	
3018.0	0.0	0.25891	0.1344	
3019.0	0.0	0.2666	0.14996	
3020.0	0.0	0.27887	0.16589	
3021.0	0.0	0.28601	0.17798	
3022.0	0.0	0.2959	0.19171	
3023.0	0.0	0.30176	0.19775	
3024.0	0.0	0.30945	0.20746	
3025.0	0.0	0.31421	0.20673	
3026.0	0.0	0.32245	0.22101	
3027.0	0.0	0.32666	0.22467	
3028.0	0.0	0.33325	0.22879	
3029.0	0.0	0.33508	0.2309	
3030.0	0.0	0.34167	0.23822	
3031.0	0.0	0.34534	0.23804	
3032.0	0.0	0.35376	0.24225	
3033.0	0.0	0.36182	0.23584	
3034.0	0.0	0.37244	0.24445	
3035.0	0.0	0.37939	0.2417	
3036.0	0.0	0.39001	0.24445	
3037.0	0.0	0.39789	0.24115	
3038.0	0.0	0.41089	0.23566	
3039.0	0.0	0.42169	0.23309	
3040.0	0.0	0.43726	0.2287	
3041.0	0.0	0.45044	0.22311	
3042.0	0.0	0.46875	0.22119	
3043.0	0.0	0.48486	0.2157	
3044.0	0.0	0.505	0.21753	
3045.0	0.0	0.52148	0.21652	
3046.0	0.0	0.54236	0.21899	
3047.0	0.0	0.5603	0.21661	
3048.0	0.0	0.58081	0.21918	
3049.0	0.0	0.59802	0.21204	
3050.0	0.0	0.61908	0.21094	
3051.0	0.0	0.63684	0.20892	
3052.0	0.0	0.65955	0.20801	
3053.0	0.0	0.67749	0.20508	
3054.0	0.0	0.69873	0.2103	
3055.0	0.0	0.71558	0.20416	
3056.0	0.0	0.73462	0.20673	
3057.0	0.0	0.74963	0.20435	
3058.0	0.0	0.76648	0.2027	
3059.0	0.0	0.78003	0.19592	
3060.0	0.0	0.79614	0.1983	
3061.0	0.0	0.8075	0.19977	
3062.0	0.0	0.82178	0.19135	
3063.0	0.0	0.83057	0.19354	
3064.0	0.0	0.84192	0.18237	
3065.0	0.0	0.8476	0.17432	
3066.0	0.0	0.8562	0.17743	
3067.0	0.0	0.86023	0.17267	
3068.0	0.0	0.86737	0.18237	
3069.0	0.0	0.87012	0.17175	
3070.0	0.0	0.87524	0.16901	
3071.0	0.0	0.87598	0.16296	
3072.0	0.0	0.87762	0.15875	
3073.0	0.0	0.87524	0.16461	
3074.0	0.0	0.87378	0.16534	
3075.0	0.0	0.86755	0.15253	
3076.0	0.0	0.86371	0.14941	
3077.0	0.0	0.85638	0.14502	
3078.0	0.0	0.85181	0.14548	
3079.0	0.0	0.84302	0.13989	
3080.0	0.0	0.83679	0.14191	
3081.0	0.0	0.82507	0.13293	
3082.0	0.0	0.81647	0.13898	
3083.0	0.0	0.80347	0.13257	
3084.0	0.0	0.79211	0.13751	
3085.0	0.0	0.77747	0.13568	
3086.0	0.0	0.76465	0.13605	
3087.0	0.0	0.74854	0.14008	
3088.0	0.0	0.73608	0.13055	
3089.0	0.0	0.72034	0.13147	
3090.0	0.0	0.70715	0.12891	
3091.0	0.0	0.69012	0.13477	
3092.0	0.0	0.67657	0.12891	
3093.0	0.0	0.65918	0.12488	
3094.0	0.0	0.64563	0.12543	
3095.0	0.0	0.62988	0.12561	
3096.0	0.0	0.61633	0.12634	
3097.0	0.0	0.60022	0.12048	
3098.0	0.0	0.58704	0.12085	
3099.0	0.0	0.57056	0.11774	
3100.0	0.0	0.55701	0.12305	
3101.0	0.0	0.54053	0.11737	
3102.0	0.0	0.52863	0.12415	
3103.0	0.0	0.51306	0.11938	
3104.0	0.0	0.50208	0.12323	
3105.0	0.0	0.48633	0.12268	
3106.0	0.0	0.47278	0.12433	
3107.0	0.0	0.45703	0.12231	
3108.0	0.0	0.44604	0.12396	
3109.0	0.0	0.43213	0.12122	
3110.0	0.0	0.42151	0.12067	
3111.0	0.0	0.40833	0.11792	
3112.0	0.0	0.39624	0.11847	
3113.0	0.0	0.38123	0.11609	
3114.0	0.0	0.37061	0.11746	
3115.0	0.0	0.35669	0.11627	
3116.0	0.0	0.34717	0.11517	
3117.0	0.0	0.33472	0.11481	
3118.0	0.0	0.32812	0.11609	
3119.0	0.0	0.32007	0.11224	
3120.0	0.0	0.3175	0.11609	
3121.0	0.0	0.31329	0.11426	
3122.0	0.0	0.31384	0.11751	
3123.0	0.0	0.31183	0.11682	
3124.0	0.0	0.31366	0.12085	
3125.0	0.0	0.31311	0.11829	
3126.0	0.0	0.31531	0.11865	
3127.0	0.0	0.31458	0.11865	
3128.0	0.0	0.31787	0.11737	
3129.0	0.0	0.31732	0.11536	
3130.0	0.0	0.3197	0.11719	
3131.0	0.0	0.31824	0.11298	
3132.0	0.0	0.31897	0.11371	
3133.0	0.0	0.31677	0.11151	
3134.0	0.0	0.31732	0.11389	
3135.0	0.0	0.31622	0.11334	
3136.0	0.0	0.31934	0.11426	
3137.0	0.0	0.31824	0.11481	
3138.0	0.0	0.3197	0.11847	
3139.0	0.0	0.3186	0.11737	
3140.0	0.0	0.31934	0.11746	
3141.0	0.0	0.31714	0.11902	
3142.0	0.0	0.31714	0.1203	
3143.0	0.0	0.31348	0.11993	
3144.0	0.0	0.31201	0.12213	
3145.0	0.0	0.3078	0.12103	
3146.0	0.0	0.3078	0.12048	
3147.0	0.0	0.30414	0.12231	
3148.0	0.0	0.30396	0.12524	
3149.0	0.0	0.29883	0.12396	
3150.0	0.0	0.29773	0.12213	
3151.0	0.0	0.29132	0.12231	
3152.0	0.0	0.28711	0.12964	
3153.0	0.0	0.2796	0.12964	
3154.0	0.0	0.27484	0.1344	
3155.0	0.0	0.2666	0.13531	
3156.0	0.0	0.26184	0.13458	
3157.0	0.0	0.25342	0.14008	
3158.0	0.0	0.24847	0.14337	
3159.0	0.0	0.24097	0.14301	
3160.0	0.0	0.23511	0.14777	
3161.0	0.0	0.22632	0.14319	
3162.0	0.0	0.22083	0.1474	
3163.0	0.0	0.21094	0.14648	
3164.0	0.0	0.20453	0.15253	
3165.0	0.0	0.19482	0.15472	
3166.0	0.0	0.18896	0.15582	
3167.0	0.0	0.17871	0.15491	
3168.0	0.0	0.17084	0.15289	
3169.0	0.0	0.15875	0.1441	
3170.0	0.0	0.14941	0.12964	
3171.0	0.0	0.13623	0.11407	
3172.0	0.0	0.12689	0.10217	
3173.0	0.0	0.11444	0.07983	
3174.0	0.0	0.10693	0.07343	
3175.0	0.0	0.09668	0.05951	
3176.0	0.0	0.09155	0.04633	
3177.0	0.0	0.08459	0.03369	
3178.0	0.0	0.08313	0.03534	
3179.0	0.0	0.08057	0.02051	
3180.0	0.0	0.08258	0.02362	
3181.0	0.0	0.0813	0.01685	
3182.0	0.0	0.0813	0.0174	
3183.0	0.0	0.0791	0.01154	
3184.0	0.0	0.08221	0.01099	
3185.0	0.0	0.0824	0.0141	
3186.0	0.0	0.08716	0.01154	
3187.0	0.0	0.08954	0.01758	
3188.0	0.0	0.09155	0.02032	
3189.0	0.0	0.09027	0.02234	
3190.0	0.0	0.09302	0.03278	
3191.0	0.0	0.0921	0.03717	
3192.0	0.0	0.09521	0.04065	
3193.0	0.0	0.09668	0.04587	
3194.0	0.0	0.10254	0.0531	
3195.0	0.0	0.10767	0.05676	
3196.0	0.0	0.11829	0.06628	
3197.0	0.0	0.12598	0.07123	
3198.0	0.0	0.13916	0.07562	
3199.0	0.0	0.14795	0.08533	
3200.0	0.0	0.16077	0.08954	
3201.0	0.0	0.17157	0.09906	
3202.0	0.0	0.1842	0.10327	
3203.0	0.0	0.19482	0.10748	
3204.0	0.0	0.20874	0.11517	
3205.0	0.0	0.21899	0.11751	
3206.0	0.0	0.23181	0.1236	
3207.0	0.0	0.24023	0.12579	
3208.0	0.0	0.25085	0.13193	
3209.0	0.0	0.25726	0.13385	
3210.0	0.0	0.2666	0.14081	
3211.0	0.0	0.27246	0.14301	
3212.0	0.0	0.28198	0.14886	
3213.0	0.0	0.28711	0.15161	
3214.0	0.0	0.29443	0.15637	
3215.0	0.0	0.29919	0.15948	
3216.0	0.0	0.30432	0.16022	
3217.0	0.0	0.30688	0.16782	
3218.0	0.0	0.31128	0.1723	
3219.0	0.0	0.31128	0.17212	
3220.0	0.0	0.31348	0.17743	
3221.0	0.0	0.31458	0.18018	
3222.0	0.0	0.31787	0.18237	
3223.0	0.0	0.31934	0.1842	
3224.0	0.0	0.32153	0.18512	
3225.0	0.0	0.32043	0.18677	
3226.0	0.0	0.32043	0.18988	
3227.0	0.0	0.31604	0.18549	
3228.0	0.0	0.31146	0.18668	
3229.0	0.0	0.30542	0.18768	
3230.0	0.0	0.30029	0.18146	
3231.0	0.0	0.2959	0.18768	
3232.0	0.0	0.29132	0.1886	
3233.0	0.0	0.28638	0.18878	
3234.0	0.0	0.28217	0.18878	
3235.0	0.0	0.27612	0.18768	
3236.0	0.0	0.27063	0.1864	
3237.0	0.0	0.2644	0.19263	
3238.0	0.0	0.25854	0.1886	
3239.0	0.0	0.25104	0.19208	
3240.0	0.0	0.2439	0.18713	
3241.0	0.0	0.23657	0.19006	
3242.0	0.0	0.2298	0.1864	
3243.0	0.0	0.22174	0.19135	
3244.0	0.0	0.21497	0.18951	
3245.0	0.0	0.20764	0.18842	
3246.0	0.0	0.20105	0.18585	
3247.0	0.0	0.19299	0.18411	
3248.0	0.0	0.18604	0.18585	
3249.0	0.0	0.17725	0.17999	
3250.0	0.0	0.16992	0.17999	
3251.0	0.0	0.16058	0.17596	
3252.0	0.0	0.15161	0.1712	
3253.0	0.0	0.14136	0.16626	
3254.0	0.0	0.13147	0.15674	
3255.0	0.0	0.1203	0.14529	
3256.0	0.0	0.11023	0.13348	
3257.0	0.0	0.10034	0.11957	
3258.0	0.0	0.09265	0.10638	
3259.0	0.0	0.0835	0.09979	
3260.0	0.0	0.07397	0.09137	
3261.0	0.0	0.06519	0.08057	
3262.0	0.0	0.06079	0.06683	
3263.0	0.0	0.05713	0.06665	
3264.0	0.0	0.05603	0.05891	
3265.0	0.0	0.05566	0.05182	
3266.0	0.0	0.05347	0.04321	
3267.0	0.0	0.0498	0.04797	
3268.0	0.0	0.04816	0.03845	
3269.0	0.0	0.04541	0.04431	
3270.0	0.0	0.04431	0.03699	
3271.0	0.0	0.0434	0.03937	
3272.0	0.0	0.04468	0.03589	
3273.0	0.0	0.04834	0.03845	
3274.0	0.0	0.0542	0.03278	
3275.0	0.0	0.06042	0.03204	
3276.0	0.0	0.06775	0.039	
3277.0	0.0	0.07507	0.04211	
3278.0	0.0	0.08368	0.03955	
3279.0	0.0	0.09229	0.04431	
3280.0	0.0	0.10162	0.04541	
3281.0	0.0	0.11096	0.04358	
3282.0	0.0	0.12085	0.04358	
3283.0	0.0	0.13074	0.03827	
3284.0	0.0	0.14026	0.04486	
3285.0	0.0	0.14905	0.03992	
3286.0	0.0	0.1582	0.04596	
3287.0	0.0	0.16479	0.04871	
3288.0	0.0	0.17249	0.04559	
3289.0	0.0	0.17871	0.0498	
3290.0	0.0	0.18604	0.0542	
3291.0	0.0	0.19281	0.05731	
3292.0	0.0	0.19849	0.05566	
3293.0	0.0	0.20398	0.06207	
3294.0	0.0	0.20764	0.06454	
3295.0	0.0	0.21057	0.06427	
3296.0	0.0	0.21387	0.06775	
3297.0	0.0	0.21387	0.06537	
3298.0	0.0	0.21515	0.07141	
3299.0	0.0	0.21497	0.0683	
3300.0	0.0	0.21533	0.07343	
3301.0	0.0	0.21515	0.07654	
3302.0	0.0	0.2157	0.07462	
3303.0	0.0	0.21478	0.07855	
3304.0	0.0	0.21313	0.08112	
3305.0	0.0	0.20947	0.08057	
3306.0	0.0	0.20563	0.07947	
3307.0	0.0	0.19958	0.08075	
3308.0	0.0	0.19482	0.08258	
3309.0	0.0	0.18823	0.08624	
3310.0	0.0	0.18311	0.08624	
3311.0	0.0	0.17688	0.0932	
3312.0	0.0	0.17221	0.09521	
3313.0	0.0	0.16589	0.09906	
3314.0	0.0	0.16077	0.104	
3315.0	0.0	0.15509	0.10291	
3316.0	0.0	0.15015	0.11151	
3317.0	0.0	0.1441	0.11682	
3318.0	0.0	0.14044	0.12415	
3319.0	0.0	0.1355	0.13147	
3320.0	0.0	0.13257	0.13531	
3321.0	0.0	0.12964	0.14392	
3322.0	0.0	0.12817	0.1485	
3323.0	0.0	0.12671	0.15179	
3324.0	0.0	0.12634	0.16534	
3325.0	0.0	0.12561	0.16718	
3326.0	0.0	0.12598	0.17542	
3327.0	0.0	0.12561	0.18475	
3328.0	0.0	0.12689	0.18741	
3329.0	0.0	0.12634	0.19354	
3330.0	0.0	0.12781	0.20535	
3331.0	0.0	0.12927	0.20526	
3332.0	0.0	0.13257	0.20837	
3333.0	0.0	0.13513	0.22284	
3334.0	0.0	0.13916	0.22815	
3335.0	0.0	0.14209	0.23199	
3336.0	0.0	0.1474	0.23254	
3337.0	0.0	0.15234	0.24408	
3338.0	0.0	0.15985	0.2525	
3339.0	0.0	0.16589	0.258	
3340.0	0.0	0.17102	0.26166	
3341.0	0.0	0.17468	0.27869	
3342.0	0.0	0.18274	0.28949	
3343.0	0.0	0.1908	0.29755	
3344.0	0.0	0.20105	0.30121	
3345.0	0.0	0.21185	0.31824	
3346.0	0.0	0.22192	0.32996	
3347.0	0.0	0.22888	0.33911	
3348.0	0.0	0.23767	0.34845	
3349.0	0.0	0.24463	0.35742	
3350.0	0.0	0.25269	0.37335	
3351.0	0.0	0.26093	0.38123	
3352.0	0.0	0.27136	0.39606	
3353.0	0.0	0.28235	0.40228	
3354.0	0.0	0.2981	0.40906	
3355.0	0.0	0.31384	0.42847	
3356.0	0.0	0.33252	0.44421	
3357.0	0.0	0.3501	0.45735	
3358.0	0.0	0.36951	0.46527	
3359.0	0.0	0.38782	0.47754	
3360.0	0.0	0.40796	0.48798	
3361.0	0.0	0.42773	0.49036	
3362.0	0.0	0.45007	0.51031	
3363.0	0.0	0.47168	0.50793	
3364.0	0.0	0.49512	0.52533	
3365.0	0.0	0.51581	0.53119	
3366.0	0.0	0.53687	0.53888	
3367.0	0.0	0.55463	0.53906	
3368.0	0.0	0.57349	0.54236	
3369.0	0.0	0.58997	0.5528	
3370.0	0.0	0.60736	0.55847	
3371.0	0.0	0.62256	0.55957	
3372.0	0.0	0.63794	0.56268	
3373.0	0.0	0.65149	0.57129	
3374.0	0.0	0.66522	0.57605	
3375.0	0.0	0.67456	0.57751	
3376.0	0.0	0.68701	0.58026	
3377.0	0.0	0.69617	0.58191	
3378.0	0.0	0.70642	0.58337	
3379.0	0.0	0.71411	0.58191	
3380.0	0.0	0.72437	0.58626	
3381.0	0.0	0.73242	0.58887	
3382.0	0.0	0.74304	0.59399	
3383.0	0.0	0.75073	0.60022	
3384.0	0.0	0.76025	0.60535	
3385.0	0.0	0.76703	0.61157	
3386.0	0.0	0.77527	0.62054	
3387.0	0.0	0.78076	0.62549	
3388.0	0.0	0.78772	0.63318	
3389.0	0.0	0.79175	0.63959	
3390.0	0.0	0.79779	0.65002	
3391.0	0.0	0.8031	0.65735	
3392.0	0.0	0.80969	0.66815	
3393.0	0.0	0.81445	0.67218	
3394.0	0.0	0.82104	0.68188	
3395.0	0.0	0.82471	0.68903	
3396.0	0.0	0.83057	0.70496	
3397.0	0.0	0.83368	0.71265	
3398.0	0.0	0.83881	0.72034	
3399.0	0.0	0.84229	0.72601	
3400.0	0.0	0.84631	0.73846	
3401.0	0.0	0.84961	0.74615	
3402.0	0.0	0.85547	0.75659	
3403.0	0.0	0.8595	0.76611	
3404.0	0.0	0.86481	0.77802	
3405.0	0.0	0.86902	0.78021	
3406.0	0.0	0.87488	0.79541	
3407.0	0.0	0.87964	0.80292	
3408.0	0.0	0.88586	0.81372	
3409.0	0.0	0.88916	0.82141	
3410.0	0.0	0.89355	0.82727	
3411.0	0.0	0.89703	0.83093	
3412.0	0.0	0.90234	0.84485	
3413.0	0.0	0.90564	0.85052	
3414.0	0.0	0.9104	0.85748	
3415.0	0.0	0.91443	0.86389	
3416.0	0.0	0.92029	0.86865	
3417.0	0.0	0.92358	0.87634	
3418.0	0.0	0.93018	0.88257	
3419.0	0.0	0.9353	0.88348	
3420.0	0.0	0.94189	0.89447	
3421.0	0.0	0.94519	0.89301	
3422.0	0.0	0.94812	0.90601	
3423.0	0.0	0.95288	0.9104	
3424.0	0.0	0.95947	0.91434	
3425.0	0.0	0.96423	0.91589	
3426.0	0.0	0.97229	0.92065	
3427.0	0.0	0.97742	0.92139	
3428.0	0.0	0.98218	0.92505	
3429.0	0.0	0.98511	0.92999	
3430.0	0.0	0.98914	0.93439	
3431.0	0.0	0.99261	0.93054	
3432.0	0.0	0.99939	0.94318	
3433.0	0.0	1.00415	0.9494	
3434.0	0.0	1.0155	0.95764	
3435.0	0.0	1.02722	0.96126	
3436.0	0.0	1.0415	0.96863	
3437.0	0.0	1.05524	0.9809	
3438.0	0.0	1.07117	0.98804	
3439.0	0.0	1.08435	0.99756	
3440.0	0.0	1.1001	1.01422	
3441.0	0.0	1.11328	1.01642	
3442.0	0.0	1.12976	1.02356	
3443.0	0.0	1.14331	1.02557	
3444.0	0.0	1.15942	1.03693	
3445.0	0.0	1.17261	1.0415	
3446.0	0.0	1.18726	1.04443	
3447.0	0.0	1.19751	1.04828	
3448.0	0.0	1.2085	1.05359	
3449.0	0.0	1.21436	1.05688	
3450.0	0.0	1.22095	1.05688	
3451.0	0.0	1.22168	1.06403	
3452.0	0.0	1.22241	1.0675	
3453.0	0.0	1.21838	1.06842	
3454.0	0.0	1.21143	1.06934	
3455.0	0.0	1.19971	1.06311	
3456.0	0.0	1.18433	1.06787	
3457.0	0.0	1.16565	1.06055	
3458.0	0.0	1.14917	1.06586	
3459.0	0.0	1.13251	1.07886	
3460.0	0.0	1.12207	1.09094	
3461.0	0.0	1.112	1.10358	
3462.0	0.0	1.10962	1.10889	
3463.0	0.0	1.10815	1.12903	
3464.0	0.0	1.10962	1.14075	
3465.0	0.0	1.10962	1.14876	
3466.0	0.0	1.11035	1.15796	
3467.0	0.0	1.10669	1.16254	
3468.0	0.0	1.10303	1.1662	
3469.0	0.0	1.0968	1.16107	
3470.0	0.0	1.08984	1.16528	
3471.0	0.0	1.07959	1.14954	
3472.0	0.0	1.0708	1.15521	
3473.0	0.0	1.06128	1.14697	
3474.0	0.0	1.05176	1.14807	
3475.0	0.0	1.04077	1.14624	
3476.0	0.0	1.03125	1.14056	
3477.0	0.0	1.021	1.12885	
3478.0	0.0	1.01221	1.12701	
3479.0	0.0	1.00342	1.11511	
3480.0	0.0	0.99573	1.11017	
3481.0	0.0	0.98804	1.08618	
3482.0	0.0	0.98291	1.07886	
3483.0	0.0	0.97742	1.08105	
3484.0	0.0	0.97485	1.07227	
3485.0	0.0	0.97156	1.05688	
3486.0	0.0	0.96973	1.05707	
3487.0	0.0	0.96716	1.04736	
3488.0	0.0	0.96533	1.03931	
3489.0	0.0	0.96313	1.02502	
3490.0	0.0	0.96167	1.01971	
3491.0	0.0	0.95837	1.00598	
3492.0	0.0	0.95837	0.99847	
3493.0	0.0	0.95654	0.98785	
3494.0	0.0	0.95691	0.97943	
3495.0	0.0	0.95764	0.97083	
3496.0	0.0	0.96112	0.95197	
3497.0	0.0	0.96313	0.94208	
3498.0	0.0	0.9668	0.93311	
3499.0	0.0	0.96973	0.92102	
3500.0	0.0	0.9743	0.9071	
3501.0	0.0	0.97705	0.89502	
3502.0	0.0	0.98291	0.8855	
3503.0	0.0	0.98804	0.87451	
3504.0	0.0	0.99609	0.86682	
3505.0	0.0	1.00122	0.85913	
3506.0	0.0	1.0058	0.84906	
3507.0	0.0	1.01294	0.84485	
3508.0	0.0	1.02283	0.8465	
3509.0	0.0	1.0318	0.84229	
3510.0	0.0	1.04297	0.83936	
3511.0	0.0	1.05377	0.83459	
3512.0	0.0	1.06238	0.82874	
3513.0	0.0	1.06934	0.8313	
3514.0	0.0	1.07739	0.83038	
3515.0	0.0	1.08398	0.8269	
3516.0	0.0	1.09003	0.82764	
3517.0	0.0	1.09497	0.82672	
3518.0	0.0	1.10266	0.82947	
3519.0	0.0	1.1098	0.83203	
3520.0	0.0	1.12152	0.83514	
3521.0	0.0	1.13123	0.83881	
3522.0	0.0	1.14404	0.84613	
3523.0	0.0	1.15356	0.85034	
3524.0	0.0	1.16602	0.86023	
3525.0	0.0	1.17554	0.86737	
3526.0	0.0	1.18799	0.86975	
3527.0	0.0	1.19824	0.87469	
3528.0	0.0	1.21143	0.87817	
3529.0	0.0	1.22205	0.87909	
3530.0	0.0	1.23413	0.88055	
3531.0	0.0	1.24438	0.8833	
3532.0	0.0	1.25537	0.88623	
3533.0	0.0	1.26123	0.88751	
3534.0	0.0	1.26965	0.89095	
3535.0	0.0	1.27588	0.89209	
3536.0	0.0	1.28357	0.89429	
3537.0	0.0	1.29016	0.89557	
3538.0	0.0	1.29675	0.8996	
3539.0	0.0	1.30078	0.89923	
3540.0	0.0	1.30664	0.90253	
3541.0	0.0	1.30847	0.90326	
3542.0	0.0	1.31323	0.90656	
3543.0	0.0	1.31433	0.90637	
3544.0	0.0	1.31763	0.90601	
3545.0	0.0	1.31689	0.90674	
3546.0	0.0	1.31946	0.90948	
3547.0	0.0	1.31909	0.91022	
3548.0	0.0	1.32056	0.9126	
3549.0	0.0	1.31982	0.91296	
3550.0	0.0	1.31909	0.91406	
3551.0	0.0	1.31689	0.91406	
3552.0	0.0	1.31506	0.91516	
3553.0	0.0	1.30847	0.91516	
3554.0	0.0	1.30298	0.91699	
3555.0	0.0	1.29492	0.91699	
3556.0	0.0	1.28906	0.91736	
3557.0	0.0	1.2821	0.91736	
3558.0	0.0	1.27661	0.91919	
3559.0	0.0	1.26892	0.91754	
3560.0	0.0	1.26343	0.91974	
3561.0	0.0	1.25391	0.91882	
3562.0	0.0	1.24713	0.92102	
3563.0	0.0	1.23779	0.91937	
3564.0	0.0	1.23047	0.91992	
3565.0	0.0	1.22168	0.91699	
3566.0	0.0	1.21362	0.91663	
3567.0	0.0	1.20557	0.91425	
3568.0	0.0	1.20044	0.91644	
3569.0	0.0	1.19348	0.91663	
3570.0	0.0	1.18945	0.92065	
3571.0	0.0	1.18433	0.92285	
3572.0	0.0	1.18066	0.92542	
3573.0	0.0	1.177	0.92871	
3574.0	0.0	1.17334	0.92963	
3575.0	0.0	1.16895	0.93604	
3576.0	0.0	1.16528	0.9386	
3577.0	0.0	1.16016	0.94217	
3578.0	0.0	1.15649	0.94446	
3579.0	0.0	1.1499	0.94849	
3580.0	0.0	1.14624	0.95142	
3581.0	0.0	1.14111	0.95526	
3582.0	0.0	1.13818	0.95325	
3583.0	0.0	1.13452	0.95435	
3584.0	0.0	1.13232	0.96368	
3585.0	0.0	1.12903	0.96753	
3586.0	0.0	1.12903	0.96973	
3587.0	0.0	1.12756	0.97375	
3588.0	0.0	1.13049	0.97742	
3589.0	0.0	1.12976	0.97961	
3590.0	0.0	1.12976	0.98621	
3591.0	0.0	1.12592	0.98676	
3592.0	0.0	1.12793	0.99353	
3593.0	0.0	1.12903	0.98914	
3594.0	0.0	1.13196	0.99866	
3595.0	0.0	1.13452	0.99884	
3596.0	0.0	1.13525	1.00122	
3597.0	0.0	1.13104	1.0036	
3598.0	0.0	1.13086	1.00488	
3599.0	0.0	1.12537	1.00653	
3600.0	0.0	1.12354	1.008	
3601.0	0.0	1.12097	1.0069	
3602.0	0.0	1.12134	1.00598	
3603.0	0.0	1.12317	1.00269	
3604.0	0.0	1.13049	1.01019	
3605.0	0.0	1.13818	1.01184	
3606.0	0.0	1.14807	1.00763	
3607.0	0.0	1.15723	1.01294	
3608.0	0.0	1.16675	1.0166	
3609.0	0.0	1.1748	1.01624	
3610.0	0.0	1.18396	1.01733	
3611.0	0.0	1.19165	1.01202	
3612.0	0.0	1.20117	1.00781	
3613.0	0.0	1.20923	1.00813	
3614.0	0.0	1.21729	1.00049	
3615.0	0.0	1.22406	1.00122	
3616.0	0.0	1.22974	1.00195	
3617.0	0.0	1.23267	0.99939	
3618.0	0.0	1.23669	0.99628	
3619.0	0.0	1.23779	0.9895	
3620.0	0.0	1.24036	0.9917	
3621.0	0.0	1.24036	0.98291	
3622.0	0.0	1.24072	0.9847	
3623.0	0.0	1.23853	0.98108	
3624.0	0.0	1.23743	0.9776	
3625.0	0.0	1.23376	0.9743	
3626.0	0.0	1.23047	0.96753	
3627.0	0.0	1.22552	0.96625	
3628.0	0.0	1.22058	0.96313	
3629.0	0.0	1.21545	0.95654	
3630.0	0.0	1.21069	0.9505	
3631.0	0.0	1.20483	0.94702	
3632.0	0.0	1.2019	0.94373	
3633.0	0.0	1.19531	0.9375	
3634.0	0.0	1.19019	0.9342	
3635.0	0.0	1.18286	0.93018	
3636.0	0.0	1.17719	0.92688	
3637.0	0.0	1.16858	0.92249	
3638.0	0.0	1.16016	0.91772	
3639.0	0.0	1.14954	0.91296	
3640.0	0.0	1.14111	0.90637	
3641.0	0.0	1.13068	0.90253	
3642.0	0.0	1.12317	0.89905	
3643.0	0.0	1.11401	0.89172	
3644.0	0.0	1.10559	0.89227	
3645.0	0.0	1.09607	0.88678	
3646.0	0.0	1.08838	0.88312	
3647.0	0.0	1.07703	0.88074	
3648.0	0.0	1.06934	0.87451	
3649.0	0.0	1.05908	0.87305	
3650.0	0.0	1.05212	0.86792	
3651.0	0.0	1.04297	0.86371	
3652.0	0.0	1.03638	0.8606	
3653.0	0.0	1.02869	0.85474	
3654.0	0.0	1.02356	0.85199	
3655.0	0.0	1.01697	0.84705	
3656.0	0.0	1.01331	0.84119	
3657.0	0.0	1.00708	0.83643	
3658.0	0.0	1.00195	0.83386	
3659.0	0.0	0.99719	0.82288	
3660.0	0.0	0.9939	0.81958	
3661.0	0.0	0.98877	0.8194	
3662.0	0.0	0.98584	0.81519	
3663.0	0.0	0.98145	0.80511	
3664.0	0.0	0.97778	0.80328	
3665.0	0.0	0.97266	0.79797	
3666.0	0.0	0.96881	0.79266	
3667.0	0.0	0.96387	0.78864	
3668.0	0.0	0.96075	0.78543	
3669.0	0.0	0.95581	0.77527	
3670.0	0.0	0.95361	0.77307	
3671.0	0.0	0.94958	0.77032	
3672.0	0.0	0.94867	0.76282	
3673.0	0.0	0.94482	0.75403	
3674.0	0.0	0.94336	0.75201	
3675.0	0.0	0.9397	0.74561	
3676.0	0.0	0.93842	0.73993	
3677.0	0.0	0.93457	0.7337	
3678.0	0.0	0.93604	0.73389	
3679.0	0.0	0.93384	0.73315	
3680.0	0.0	0.93311	0.73297	
3681.0	0.0	0.92761	0.72656	
3682.0	0.0	0.92798	0.72803	
3683.0	0.0	0.92816	0.7262	
3684.0	0.0	0.92944	0.72455	
3685.0	0.0	0.93164	0.72102	
3686.0	0.0	0.93347	0.71667	
3687.0	0.0	0.93237	0.7132	
3688.0	0.0	0.93091	0.71118	
3689.0	0.0	0.92798	0.70587	
3690.0	0.0	0.92871	0.70276	
3691.0	0.0	0.92834	0.69818	
3692.0	0.0	0.93091	0.70111	
3693.0	0.0	0.93311	0.69635	
3694.0	0.0	0.94153	0.69507	
3695.0	0.0	0.95068	0.68774	
3696.0	0.0	0.96277	0.68958	
3697.0	0.0	0.97339	0.68774	
3698.0	0.0	0.98547	0.68774	
3699.0	0.0	0.99536	0.68591	
3700.0	0.0	1.00671	0.68481	
3701.0	0.0	1.01587	0.68079	
3702.0	0.0	1.02686	0.67749	
3703.0	0.0	1.03638	0.67273	
3704.0	0.0	1.04736	0.67017	
3705.0	0.0	1.05469	0.66577	
3706.0	0.0	1.06421	0.66394	
3707.0	0.0	1.06934	0.66064	
3708.0	0.0	1.07593	0.66119	
3709.0	0.0	1.07959	0.65652	
3710.0	0.0	1.08398	0.65625	
3711.0	0.0	1.08472	0.65186	
3712.0	0.0	1.08655	0.65149	
3713.0	0.0	1.08655	0.64764	
3714.0	0.0	1.0871	0.64783	
3715.0	0.0	1.08472	0.64343	
3716.0	0.0	1.08252	0.6427	
3717.0	0.0	1.07996	0.6394	
3718.0	0.0	1.07666	0.63739	
3719.0	0.0	1.07117	0.63391	
3720.0	0.0	1.0675	0.63208	
3721.0	0.0	1.06274	0.62915	
3722.0	0.0	1.05908	0.62585	
3723.0	0.0	1.05432	0.62183	
3724.0	0.0	1.05029	0.62073	
3725.0	0.0	1.04333	0.61761	
3726.0	0.0	1.03711	0.61707	
3727.0	0.0	1.02777	0.61414	
3728.0	0.0	1.01953	0.61249	
3729.0	0.0	1.00854	0.60938	
3730.0	0.0	1.00012	0.60828	
3731.0	0.0	0.9895	0.60461	
3732.0	0.0	0.98071	0.60333	
3733.0	0.0	0.97192	0.59967	
3734.0	0.0	0.96423	0.59912	
3735.0	0.0	0.95361	0.59656	
3736.0	0.0	0.94482	0.59729	
3737.0	0.0	0.93457	0.59473	
3738.0	0.0	0.92578	0.59363	
3739.0	0.0	0.91553	0.59207	
3740.0	0.0	0.9071	0.58978	
3741.0	0.0	0.89758	0.58813	
3742.0	0.0	0.89026	0.58704	
3743.0	0.0	0.88275	0.58319	
3744.0	0.0	0.87524	0.58246	
3745.0	0.0	0.86719	0.58118	
3746.0	0.0	0.86078	0.57935	
3747.0	0.0	0.85272	0.57678	
3748.0	0.0	0.84851	0.57568	
3749.0	0.0	0.84082	0.5722	
3750.0	0.0	0.83496	0.56964	
3751.0	0.0	0.82782	0.56854	
3752.0	0.0	0.82233	0.56873	
3753.0	0.0	0.81519	0.5647	
3754.0	0.0	0.80951	0.56543	
3755.0	0.0	0.80273	0.56067	
3756.0	0.0	0.79761	0.56012	
3757.0	0.0	0.79028	0.55682	
3758.0	0.0	0.78516	0.55334	
3759.0	0.0	0.77673	0.55444	
3760.0	0.0	0.77051	0.55316	
3761.0	0.0	0.76135	0.55261	
3762.0	0.0	0.75568	0.55188	
3763.0	0.0	0.74817	0.54968	
3764.0	0.0	0.74268	0.5484	
3765.0	0.0	0.73572	0.54694	
3766.0	0.0	0.73022	0.54547	
3767.0	0.0	0.72363	0.54199	
3768.0	0.0	0.7196	0.53833	
3769.0	0.0	0.71558	0.53778	
3770.0	0.0	0.71283	0.53778	
3771.0	0.0	0.70715	0.53796	
3772.0	0.0	0.70276	0.53687	
3773.0	0.0	0.7002	0.5365	
3774.0	0.0	0.7002	0.53284	
3775.0	0.0	0.69928	0.53265	
3776.0	0.0	0.70129	0.52606	
3777.0	0.0	0.69983	0.52551	
3778.0	0.0	0.69727	0.5235	
3779.0	0.0	0.69305	0.51819	
3780.0	0.0	0.68958	0.51581	
3781.0	0.0	0.68536	0.51141	
3782.0	0.0	0.68298	0.51251	
3783.0	0.0	0.67969	0.51141	
3784.0	0.0	0.6806	0.51379	
3785.0	0.0	0.68372	0.5094	
3786.0	0.0	0.69141	0.51141	
3787.0	0.0	0.69836	0.50647	
3788.0	0.0	0.70624	0.51196	
3789.0	0.0	0.71375	0.51123	
3790.0	0.0	0.72217	0.51013	
3791.0	0.0	0.72913	0.51343	
3792.0	0.0	0.73901	0.51379	
3793.0	0.0	0.74634	0.51343	
3794.0	0.0	0.75513	0.51306	
3795.0	0.0	0.76135	0.51141	
3796.0	0.0	0.76941	0.50775	
3797.0	0.0	0.7749	0.50793	
3798.0	0.0	0.78113	0.5083	
3799.0	0.0	0.78406	0.50684	
3800.0	0.0	0.78918	0.50702	
3801.0	0.0	0.79138	0.50446	
3802.0	0.0	0.79578	0.50409	
3803.0	0.0	0.79688	0.50336	
3804.0	0.0	0.79944	0.50281	
3805.0	0.0	0.79871	0.50153	
3806.0	0.0	0.7998	0.50171	
3807.0	0.0	0.79614	0.49823	
3808.0	0.0	0.79578	0.50061	
3809.0	0.0	0.79285	0.49731	
3810.0	0.0	0.79102	0.49731	
3811.0	0.0	0.78699	0.49402	
3812.0	0.0	0.78516	0.49219	
3813.0	0.0	0.78186	0.48962	
3814.0	0.0	0.77966	0.48981	
3815.0	0.0	0.7749	0.48889	
3816.0	0.0	0.77124	0.48907	
3817.0	0.0	0.76392	0.48834	
3818.0	0.0	0.75769	0.48798	
3819.0	0.0	0.74854	0.48816	
3820.0	0.0	0.73975	0.48962	
3821.0	0.0	0.72839	0.48706	
3822.0	0.0	0.71906	0.48889	
3823.0	0.0	0.70734	0.49072	
3824.0	0.0	0.69836	0.49164	
3825.0	0.0	0.68774	0.49146	
3826.0	0.0	0.67822	0.48889	
3827.0	0.0	0.66797	0.48944	
3828.0	0.0	0.66028	0.49512	
3829.0	0.0	0.65112	0.49182	
3830.0	0.0	0.6438	0.49512	
3831.0	0.0	0.63574	0.49246	
3832.0	0.0	0.6308	0.49475	
3833.0	0.0	0.62439	0.48798	
3834.0	0.0	0.61963	0.49251	
3835.0	0.0	0.6134	0.49017	
3836.0	0.0	0.60938	0.49091	
3837.0	0.0	0.60242	0.49146	
3838.0	0.0	0.59766	0.49365	
3839.0	0.0	0.59143	0.49622	
3840.0	0.0	0.5896	0.49374	
3841.0	0.0	0.58667	0.49915	
3842.0	0.0	0.58374	0.505	
3843.0	0.0	0.57568	0.50354	
3844.0	0.0	0.5658	0.50977	
3845.0	0.0	0.55298	0.51379	
3846.0	0.0	0.54108	0.52148	
3847.0	0.0	0.52661	0.53119	
3848.0	0.0	0.51288	0.54089	
3849.0	0.0	0.49548	0.55591	
3850.0	0.0	0.47919	0.57568	
3851.0	0.0	0.45996	0.59088	
3852.0	0.0	0.44312	0.60461	
3853.0	0.0	0.42444	0.62128	
3854.0	0.0	0.40814	0.63574	
3855.0	0.0	0.39111	0.64197	
3856.0	0.0	0.37646	0.64417	
3857.0	0.0	0.35779	0.63556	
3858.0	0.0	0.33948	0.63116	
3859.0	0.0	0.31641	0.61945	
3860.0	0.0	0.29333	0.60498	
3861.0	0.0	0.2644	0.59344	
3862.0	0.0	0.23584	0.57605	
3863.0	0.0	0.20801	0.55811	
3864.0	0.0	0.18347	0.52936	
3865.0	0.0	0.15857	0.49146	
3866.0	0.0	0.13715	0.47186	
3867.0	0.0	0.11426	0.44788	
3868.0	0.0	0.09119	0.42334	
3869.0	0.0	0.06683	0.4032	
3870.0	0.0	0.04449	0.38232	
3871.0	0.0	0.02032	0.36859	
3872.0	0.0	-0.0033	0.36255	
3873.0	0.0	-0.02948	0.34991	
3874.0	0.0	-0.05347	0.33362	
3875.0	0.0	-0.07928	0.32959	
3876.0	0.0	-0.10144	0.31384	
3877.0	0.0	-0.12589	0.31128	
3878.0	0.0	-0.14758	0.29297	
3879.0	0.0	-0.17102	0.30011	
3880.0	0.0	-0.19299	0.29242	
3881.0	0.0	-0.2168	0.30157	
3882.0	0.0	-0.23804	0.30066	
3883.0	0.0	-0.26038	0.30501	
3884.0	0.0	-0.2785	0.29022	
3885.0	0.0	-0.29663	0.30359	
3886.0	0.0	-0.30945	0.31201	
3887.0	0.0	-0.32391	0.29169	
3888.0	0.0	-0.33435	0.31183	
3889.0	0.0	-0.34698	0.30908	
3890.0	0.0	-0.35614	0.31769	
3891.0	0.0	-0.36731	0.30798	
3892.0	0.0	-0.37537	0.32263	
3893.0	0.0	-0.38434	0.336	
3894.0	0.0	-0.39056	0.34424	
3895.0	0.0	-0.39789	0.3609	
3896.0	0.0	-0.40283	0.35962	
3897.0	0.0	-0.41107	0.39349	
3898.0	0.0	-0.41565	0.41437	
3899.0	0.0	-0.42334	0.44348	
3900.0	0.0	-0.42993	0.46747	
3901.0	0.0	-0.43854	0.4845	
3902.0	0.0	-0.44586	0.5094	
3903.0	0.0	-0.45511	0.51947	
3904.0	0.0	-0.46179	0.54749	
3905.0	0.0	-0.47095	0.56195	
3906.0	0.0	-0.47681	0.58594	
3907.0	0.0	-0.48413	0.58626	
3908.0	0.0	-0.48779	0.62714	
3909.0	0.0	-0.49146	0.64545	
3910.0	0.0	-0.49109	0.65918	
3911.0	0.0	-0.49091	0.67749	
3912.0	0.0	-0.48596	0.68976	
3913.0	0.0	-0.48102	0.69653	
3914.0	0.0	-0.47443	0.7002	
3915.0	0.0	-0.47076	0.71008	
3916.0	0.0	-0.46527	0.71393	
3917.0	0.0	-0.46326	0.69379	
3918.0	0.0	-0.46179	0.71796	
3919.0	0.0	-0.46436	0.71265	
3920.0	0.0	-0.46765	0.71448	
3921.0	0.0	-0.47443	0.70477	
3922.0	0.0	-0.48083	0.6958	
3923.0	0.0	-0.49054	0.70056	
3924.0	0.0	-0.49951	0.69324	
3925.0	0.0	-0.51196	0.68335	
3926.0	0.0	-0.52277	0.66412	
3927.0	0.0	-0.53595	0.66211	
3928.0	0.0	-0.54602	0.65552	
3929.0	0.0	-0.55902	0.65002	
3930.0	0.0	-0.56873	0.64471	
3931.0	0.0	-0.58008	0.63593	
3932.0	0.0	-0.58777	0.6286	
3933.0	0.0	-0.59692	0.61853	
3934.0	0.0	-0.60278	0.60498	
3935.0	0.0	-0.6102	0.59857	
3936.0	0.0	-0.61597	0.58759	
3937.0	0.0	-0.62347	0.58026	
3938.0	0.0	-0.62805	0.56763	
3939.0	0.0	-0.63281	0.57623	
3940.0	0.0	-0.63263	0.56927	
3941.0	0.0	-0.63281	0.55902	
3942.0	0.0	-0.63098	0.5614	
3943.0	0.0	-0.63007	0.55573	
3944.0	0.0	-0.62494	0.55298	
3945.0	0.0	-0.61963	0.54858	
3946.0	0.0	-0.61304	0.54675	
3947.0	0.0	-0.60864	0.54199	
3948.0	0.0	-0.60205	0.55188	
3949.0	0.0	-0.5993	0.5506	
3950.0	0.0	-0.59235	0.55591	
3951.0	0.0	-0.58502	0.54785	
3952.0	0.0	-0.57422	0.55737	
3953.0	0.0	-0.56213	0.55591	
3954.0	0.0	-0.54749	0.55371	
3955.0	0.0	-0.53156	0.54968	
3956.0	0.0	-0.51196	0.54932	
3957.0	0.0	-0.49255	0.53979	
3958.0	0.0	-0.47021	0.56049	
3959.0	0.0	-0.44971	0.5636	
3960.0	0.0	-0.42627	0.56635	
3961.0	0.0	-0.40558	0.57312	
3962.0	0.0	-0.38379	0.57111	
3963.0	0.0	-0.36438	0.59985	
3964.0	0.0	-0.34277	0.60938	
3965.0	0.0	-0.32227	0.61285	
3966.0	0.0	-0.29901	0.62128	
3967.0	0.0	-0.27869	0.62476	
3968.0	0.0	-0.25635	0.62604	
3969.0	0.0	-0.2384	0.6275	
3970.0	0.0	-0.21936	0.63116	
3971.0	0.0	-0.20453	0.63245	
3972.0	0.0	-0.1875	0.63721	
3973.0	0.0	-0.17212	0.63794	
3974.0	0.0	-0.15326	0.63501	
3975.0	0.0	-0.13751	0.64197	
3976.0	0.0	-0.12012	0.63995	
3977.0	0.0	-0.10547	0.64581	
3978.0	0.0	-0.09137	0.64893	
3979.0	0.0	-0.0813	0.63684	
3980.0	0.0	-0.06995	0.64508	
3981.0	0.0	-0.06299	0.63757	
3982.0	0.0	-0.0542	0.65735	
3983.0	0.0	-0.04834	0.65222	
3984.0	0.0	-0.04138	0.66083	
3985.0	0.0	-0.03607	0.66302	
3986.0	0.0	-0.02838	0.66833	
3987.0	0.0	-0.02197	0.672	
3988.0	0.0	-0.01208	0.67932	
3989.0	0.0	-0.00494	0.68262	
3990.0	0.0	0.00439	0.69159	
3991.0	0.0	0.0108	0.69562	
3992.0	0.0	0.01849	0.70239	
3993.0	0.0	0.0238	0.6958	
3994.0	0.0	0.03223	0.70679	
3995.0	0.0	0.0379	0.71045	
3996.0	0.0	0.04633	0.70862	
3997.0	0.0	0.05273	0.71008	
3998.0	0.0	0.06226	0.70953	
3999.0	0.0	0.06812	0.70148	
4000.0	0.0	0.07581	0.69891	
4001.0	0.0	0.07983	0.69305	
4002.0	0.0	0.08569	0.67346	
4003.0	0.0	0.08789	0.68262	
4004.0	0.0	0.09192	0.66559	
4005.0	0.0	0.09192	0.66559	
4006.0	0.0	0.09265	0.67108	
4007.0	0.0	0.08972	0.66431	
4008.0	0.0	0.08826	0.65405	
4009.0	0.0	0.08295	0.65771	
4010.0	0.0	0.0802	0.65771	
4011.0	0.0	0.07544	0.64746	
4012.0	0.0	0.07397	0.64893	
4013.0	0.0	0.07104	0.63849	
4014.0	0.0	0.07141	0.63831	
4015.0	0.0	0.0694	0.62604	
4016.0	0.0	0.06995	0.63556	
4017.0	0.0	0.06757	0.63245	
4018.0	0.0	0.06738	0.6297	
4019.0	0.0	0.06592	0.62073	
4020.0	0.0	0.0672	0.62238	
4021.0	0.0	0.06665	0.61816	
4022.0	0.0	0.06665	0.62036	
4023.0	0.0	0.06409	0.61615	
4024.0	0.0	0.06738	0.60663	
4025.0	0.0	0.06885	0.60004	
4026.0	0.0	0.07379	0.59308	
4027.0	0.0	0.07709	0.58521	
4028.0	0.0	0.07928	0.56927	
4029.0	0.0	0.08002	0.56598	
4030.0	0.0	0.08423	0.55957	
4031.0	0.0	0.08551	0.55481	
4032.0	0.0	0.09119	0.53586	
4033.0	0.0	0.0943	0.53394	
4034.0	0.0	0.10071	0.54456	
4035.0	0.0	0.10583	0.54254	
4036.0	0.0	0.11279	0.5462	
4037.0	0.0	0.11902	0.5473	
4038.0	0.0	0.12762	0.5506	
4039.0	0.0	0.13477	0.55078	
4040.0	0.0	0.14484	0.54053	
4041.0	0.0	0.15344	0.54794	
4042.0	0.0	0.16663	0.5462	
4043.0	0.0	0.17889	0.53925	
4044.0	0.0	0.19556	0.53064	
4045.0	0.0	0.2113	0.52176	
4046.0	0.0	0.23071	0.51709	
4047.0	0.0	0.25049	0.50134	
4048.0	0.0	0.27466	0.4964	
4049.0	0.0	0.29846	0.4812	
4050.0	0.0	0.32538	0.45923	
4051.0	0.0	0.34937	0.45593	
4052.0	0.0	0.37537	0.44531	
4053.0	0.0	0.39862	0.42261	
4054.0	0.0	0.42334	0.42114	
4055.0	0.0	0.44366	0.40906	
4056.0	0.0	0.46582	0.39285	
4057.0	0.0	0.48322	0.38525	
4058.0	0.0	0.50024	0.37646	
4059.0	0.0	0.5127	0.36823	
4060.0	0.0	0.52734	0.36328	
4061.0	0.0	0.5376	0.35541	
4062.0	0.0	0.5517	0.35504	
4063.0	0.0	0.56213	0.35138	
4064.0	0.0	0.57385	0.3501	
4065.0	0.0	0.58264	0.34552	
4066.0	0.0	0.59326	0.34937	
4067.0	0.0	0.60059	0.34863	
4068.0	0.0	0.61157	0.35101	
4069.0	0.0	0.61963	0.35065	
4070.0	0.0	0.62878	0.35184	
4071.0	0.0	0.63464	0.3501	
4072.0	0.0	0.63959	0.3501	
4073.0	0.0	0.63684	0.34753	
4074.0	0.0	0.63428	0.34625	
4075.0	0.0	0.62476	0.33984	
4076.0	0.0	0.6167	0.33801	
4077.0	0.0	0.60443	0.33032	
4078.0	0.0	0.59143	0.32556	
4079.0	0.0	0.57275	0.31549	
4080.0	0.0	0.55536	0.3111	
4081.0	0.0	0.53503	0.30615	
4082.0	0.0	0.51709	0.3045	
4083.0	0.0	0.49768	0.29993	
4084.0	0.0	0.48193	0.2959	
4085.0	0.0	0.46454	0.2926	
4086.0	0.0	0.45264	0.28748	
4087.0	0.0	0.43817	0.28436	
4088.0	0.0	0.42883	0.28326	
4089.0	0.0	0.42114	0.27374	
4090.0	0.0	0.42188	0.2688	
4091.0	0.0	0.42554	0.25964	
4092.0	0.0	0.43671	0.2547	
4093.0	0.0	0.44971	0.24637	
4094.0	0.0	0.46765	0.24005	
4095.0	0.0	0.48633	0.2373	
4096.0	0.0	0.50793	0.23291	
4097.0	0.0	0.52734	0.2309	
4098.0	0.0	0.54895	0.22998	
4099.0	0.0	0.56799	0.22284	
4100.0	0.0	0.5863	0.22119	
4101.0	0.0	0.59949	0.2168	
4102.0	0.0	0.61597	0.20837	
4103.0	0.0	0.6308	0.2016	
4104.0	0.0	0.64508	0.19629	
4105.0	0.0	0.65552	0.19226	
4106.0	0.0	0.66431	0.18018	
4107.0	0.0	0.66504	0.17322	
4108.0	0.0	0.66614	0.16754	
4109.0	0.0	0.66211	0.15839	
4110.0	0.0	0.65918	0.14978	
4111.0	0.0	0.65332	0.14786	
4112.0	0.0	0.64838	0.13458	
4113.0	0.0	0.64014	0.12067	
4114.0	0.0	0.63629	0.1127	
4115.0	0.0	0.63226	0.09622	
4116.0	0.0	0.63062	0.08789	
4117.0	0.0	0.62732	0.06848	
4118.0	0.0	0.62622	0.05566	
4119.0	0.0	0.62329	0.03351	
4120.0	0.0	0.62622	0.01172	
4121.0	0.0	0.63098	-0.00623	
4122.0	0.0	0.64233	-0.02692	
4123.0	0.0	0.6535	-0.0401	
4124.0	0.0	0.6665	-0.06079	
4125.0	0.0	0.67786	-0.08551	
4126.0	0.0	0.69287	-0.08826	
4127.0	0.0	0.70679	-0.11279	
4128.0	0.0	0.72766	-0.12085	
4129.0	0.0	0.7478	-0.14191	
4130.0	0.0	0.77454	-0.13934	
4131.0	0.0	0.7998	-0.15546	
4132.0	0.0	0.82727	-0.1571	
4133.0	0.0	0.85052	-0.16919	
4134.0	0.0	0.87671	-0.17926	
4135.0	0.0	0.90161	-0.1886	
4136.0	0.0	0.92834	-0.20911	
4137.0	0.0	0.95654	-0.20892	
4138.0	0.0	0.98657	-0.21936	
4139.0	0.0	1.01257	-0.2309	
4140.0	0.0	1.03931	-0.24866	
4141.0	0.0	1.06165	-0.25049	
4142.0	0.0	1.08472	-0.26532	
4143.0	0.0	1.10596	-0.27832	
4144.0	0.0	1.12793	-0.30441	
4145.0	0.0	1.14551	-0.30762	
4146.0	0.0	1.16455	-0.30341	
4147.0	0.0	1.18066	-0.31494	
4148.0	0.0	1.19751	-0.32025	
4149.0	0.0	1.20996	-0.32227	
4150.0	0.0	1.22498	-0.32245	
4151.0	0.0	1.23669	-0.34863	
4152.0	0.0	1.25024	-0.34808	
4153.0	0.0	1.26123	-0.35083	
4154.0	0.0	1.27515	-0.35522	
4155.0	0.0	1.28613	-0.34845	
4156.0	0.0	1.29858	-0.35019	
4157.0	0.0	1.30811	-0.35028	
4158.0	0.0	1.31873	-0.34186	
4159.0	0.0	1.32715	-0.35834	
4160.0	0.0	1.33667	-0.34314	
4161.0	0.0	1.3429	-0.33911	
4162.0	0.0	1.35223	-0.33801	
4163.0	0.0	1.35791	-0.32648	
4164.0	0.0	1.36597	-0.33032	
4165.0	0.0	1.37036	-0.32922	
4166.0	0.0	1.37805	-0.33893	
4167.0	0.0	1.37988	-0.35742	
4168.0	0.0	1.38574	-0.35211	
4169.0	0.0	1.38721	-0.3501	
4170.0	0.0	1.3894	-0.35907	
4171.0	0.0	1.38684	-0.35248	
4172.0	0.0	1.38428	-0.34589	
4173.0	0.0	1.37622	-0.33893	
4174.0	0.0	1.3634	-0.3349	
4175.0	0.0	1.34692	-0.33856	
4176.0	0.0	1.32861	-0.33417	
4177.0	0.0	1.30444	-0.3175	
4178.0	0.0	1.27808	-0.31567	
4179.0	0.0	1.24731	-0.31421	
4180.0	0.0	1.21582	-0.30597	
4181.0	0.0	1.18176	-0.31897	
4182.0	0.0	1.14954	-0.32062	
4183.0	0.0	1.11401	-0.32373	
4184.0	0.0	1.08105	-0.32295	
4185.0	0.0	1.04919	-0.32501	
4186.0	0.0	1.02283	-0.32373	
4187.0	0.0	0.99646	-0.32135	
4188.0	0.0	0.97229	-0.31842	
4189.0	0.0	0.94666	-0.3078	
4190.0	0.0	0.92047	-0.31549	
4191.0	0.0	0.89355	-0.30835	
4192.0	0.0	0.86938	-0.3219	
4193.0	0.0	0.84412	-0.31998	
4194.0	0.0	0.82471	-0.31622	
4195.0	0.0	0.80566	-0.30157	
4196.0	0.0	0.79175	-0.29608	
4197.0	0.0	0.7782	-0.2915	
4198.0	0.0	0.77051	-0.28711	
4199.0	0.0	0.76282	-0.28876	
4200.0	0.0	0.75696	-0.27429	
4201.0	0.0	0.74945	-0.26843	
4202.0	0.0	0.74304	-0.25928	
4203.0	0.0	0.73389	-0.26202	
4204.0	0.0	0.72748	-0.26312	
4205.0	0.0	0.72034	-0.25928	
4206.0	0.0	0.71375	-0.26198	
4207.0	0.0	0.70697	-0.27155	
4208.0	0.0	0.7002	-0.27036	
4209.0	0.0	0.69214	-0.26367	
4210.0	0.0	0.68481	-0.27393	
4211.0	0.0	0.67493	-0.27026	
4212.0	0.0	0.66687	-0.28802	
4213.0	0.0	0.65771	-0.28748	
4214.0	0.0	0.64929	-0.28748	
4215.0	0.0	0.6394	-0.30798	
4216.0	0.0	0.62915	-0.30597	
4217.0	0.0	0.61816	-0.31384	
4218.0	0.0	0.60864	-0.32483	
4219.0	0.0	0.59674	-0.33051	
4220.0	0.0	0.58667	-0.33746	
4221.0	0.0	0.57605	-0.34616	
4222.0	0.0	0.56726	-0.35394	
4223.0	0.0	0.55792	-0.36273	
4224.0	0.0	0.55078	-0.35944	
4225.0	0.0	0.54236	-0.36951	
4226.0	0.0	0.53687	-0.38251	
4227.0	0.0	0.52844	-0.3772	
4228.0	0.0	0.52148	-0.38873	
4229.0	0.0	0.51306	-0.40247	
