# OpenSignals Text File Format. Version 1
# {"00:07:80:4B:29:5A": {"position": 0, "device": "biosignalsplux", "device name": "00:07:80:4B:29:5A", "device connection": "/dev/tty.biosignalsplux-Bluetoot", "sampling rate": 100, "resolution": [16, 16], "firmware version": 776, "comments": "", "keywords": "", "mode": 0, "sync interval": 2, "date": "2022-5-4", "time": "16:32:17.289", "channels": [1, 2], "sensor": ["RESPIRATION", "RESPIRATION"], "label": ["CH1", "CH2"], "column": ["nSeq", "DI", "CH1", "CH2"], "special": [{"SpO2": [80, 40, 5, 4, 3, 3]}, {"SpO2": [80, 40, 5, 4, 3, 3]}, {"SpO2": [80, 40, 5, 4, 3, 3]}, {"SpO2": [80, 40, 5, 4, 3, 3]}, {"SpO2": [80, 40, 5, 4, 3, 3]}, {"SpO2": [80, 40, 5, 4, 3, 3]}, {"SpO2": [80, 40, 5, 4, 3, 3]}, {"SpO2": [80, 40, 5, 4, 3, 3]}], "digital IO": [0, 1], "sleeve color": ["red", ""], "convertedValues": 1}}
# EndOfHeader
0.0	0.0	0.49548	0.97266	
1.0	0.0	0.51196	0.95966	
2.0	0.0	0.51508	0.9386	
3.0	0.0	0.53394	0.92377	
4.0	0.0	0.53613	0.90527	
5.0	0.0	0.55188	0.88806	
6.0	0.0	0.55115	0.87012	
7.0	0.0	0.56616	0.87378	
8.0	0.0	0.56635	0.87323	
9.0	0.0	0.58411	0.8822	
10.0	0.0	0.58887	0.87744	
11.0	0.0	0.60828	0.8941	
12.0	0.0	0.61414	0.89832	
13.0	0.0	0.63501	0.90179	
14.0	0.0	0.6394	0.8985	
15.0	0.0	0.65771	0.90692	
16.0	0.0	0.65808	0.89978	
17.0	0.0	0.67493	0.91058	
18.0	0.0	0.67566	0.90637	
19.0	0.0	0.69177	0.91827	
20.0	0.0	0.69141	0.91901	
21.0	0.0	0.70496	0.91809	
22.0	0.0	0.70166	0.92102	
23.0	0.0	0.71265	0.92633	
24.0	0.0	0.70642	0.91333	
25.0	0.0	0.71667	0.92798	
26.0	0.0	0.70972	0.92596	
27.0	0.0	0.71777	0.92944	
28.0	0.0	0.70825	0.9342	
29.0	0.0	0.71375	0.92908	
30.0	0.0	0.70258	0.94189	
31.0	0.0	0.70642	0.94748	
32.0	0.0	0.69708	0.94263	
33.0	0.0	0.70422	0.94464	
34.0	0.0	0.69489	0.95306	
35.0	0.0	0.7002	0.96552	
36.0	0.0	0.68976	0.97119	
37.0	0.0	0.69434	0.97632	
38.0	0.0	0.68298	0.97797	
39.0	0.0	0.68738	0.98108	
40.0	0.0	0.67383	0.98163	
41.0	0.0	0.67511	0.9873	
42.0	0.0	0.6601	0.98621	
43.0	0.0	0.66211	0.98199	
44.0	0.0	0.64783	0.99353	
45.0	0.0	0.64819	1.00305	
46.0	0.0	0.63007	0.9928	
47.0	0.0	0.62805	1.01038	
48.0	0.0	0.6123	0.99902	
49.0	0.0	0.61267	1.00223	
50.0	0.0	0.60132	1.00873	
51.0	0.0	0.60498	1.00195	
52.0	0.0	0.59509	1.01294	
53.0	0.0	0.60132	1.01221	
54.0	0.0	0.5929	1.00763	
55.0	0.0	0.60132	1.0047	
56.0	0.0	0.59436	1.0199	
57.0	0.0	0.60352	1.01038	
58.0	0.0	0.59711	1.02869	
59.0	0.0	0.60608	1.0307	
60.0	0.0	0.60095	1.03491	
61.0	0.0	0.61084	1.03894	
62.0	0.0	0.60388	1.03619	
63.0	0.0	0.61157	1.0426	
64.0	0.0	0.60132	1.03949	
65.0	0.0	0.60535	1.03152	
66.0	0.0	0.59363	1.03931	
67.0	0.0	0.59546	1.03876	
68.0	0.0	0.58337	1.03766	
69.0	0.0	0.58813	1.04388	
70.0	0.0	0.57953	1.03528	
71.0	0.0	0.58832	1.03152	
72.0	0.0	0.58173	1.03638	
73.0	0.0	0.59106	1.03125	
74.0	0.0	0.58191	1.02539	
75.0	0.0	0.58722	1.02374	
76.0	0.0	0.57642	1.01056	
77.0	0.0	0.58173	1.01294	
78.0	0.0	0.57202	0.99866	
79.0	0.0	0.58081	1.01074	
80.0	0.0	0.57495	1.00177	
81.0	0.0	0.5863	0.99976	
82.0	0.0	0.58301	0.99738	
83.0	0.0	0.59619	0.99481	
84.0	0.0	0.59363	1.00342	
85.0	0.0	0.60645	1.00708	
86.0	0.0	0.60205	1.01917	
87.0	0.0	0.61285	1.02502	
88.0	0.0	0.60681	1.02466	
89.0	0.0	0.6156	1.03748	
90.0	0.0	0.60864	1.0415	
91.0	0.0	0.6178	1.047	
92.0	0.0	0.6134	1.04297	
93.0	0.0	0.62494	1.05432	
94.0	0.0	0.62329	1.05615	
95.0	0.0	0.63611	1.07062	
96.0	0.0	0.63318	1.06989	
97.0	0.0	0.64453	1.07922	
98.0	0.0	0.63977	1.08142	
99.0	0.0	0.65039	1.09406	
100.0	0.0	0.64453	1.08728	
101.0	0.0	0.65369	1.09827	
102.0	0.0	0.64673	1.09149	
103.0	0.0	0.65479	1.1001	
104.0	0.0	0.64783	1.09955	
105.0	0.0	0.65698	1.08984	
106.0	0.0	0.65149	1.09863	
107.0	0.0	0.66211	1.08875	
108.0	0.0	0.65698	1.10065	
109.0	0.0	0.66797	1.10188	
110.0	0.0	0.66321	1.09442	
111.0	0.0	0.67383	1.10339	
112.0	0.0	0.66797	1.09602	
113.0	0.0	0.67749	1.10248	
114.0	0.0	0.67236	1.10339	
115.0	0.0	0.6806	1.1109	
116.0	0.0	0.67419	1.11182	
117.0	0.0	0.68262	1.11328	
118.0	0.0	0.67603	1.11786	
119.0	0.0	0.68445	1.11859	
120.0	0.0	0.67767	1.11548	
121.0	0.0	0.68774	1.12427	
122.0	0.0	0.68115	1.11932	
123.0	0.0	0.68994	1.125	
124.0	0.0	0.68481	1.12463	
125.0	0.0	0.69434	1.1228	
126.0	0.0	0.68848	1.12866	
127.0	0.0	0.69836	1.12518	
128.0	0.0	0.69287	1.12866	
129.0	0.0	0.70239	1.1283	
130.0	0.0	0.69672	1.12646	
131.0	0.0	0.70532	1.12939	
132.0	0.0	0.69507	1.12134	
133.0	0.0	0.7002	1.11621	
134.0	0.0	0.68848	1.12244	
135.0	0.0	0.69104	1.12408	
136.0	0.0	0.67712	1.12061	
137.0	0.0	0.68188	1.12207	
138.0	0.0	0.67273	1.11584	
139.0	0.0	0.68408	1.11694	
140.0	0.0	0.68262	1.11438	
141.0	0.0	0.69653	1.10504	
142.0	0.0	0.69434	1.11493	
143.0	0.0	0.70459	1.11401	
144.0	0.0	0.69873	1.11584	
145.0	0.0	0.70862	1.1261	
146.0	0.0	0.70093	1.12445	
147.0	0.0	0.70898	1.12646	
148.0	0.0	0.7002	1.11841	
149.0	0.0	0.70496	1.12921	
150.0	0.0	0.69214	1.1239	
151.0	0.0	0.6947	1.12756	
152.0	0.0	0.67969	1.12848	
153.0	0.0	0.67969	1.12592	
154.0	0.0	0.66357	1.13654	
155.0	0.0	0.66357	1.14111	
156.0	0.0	0.64819	1.14075	
157.0	0.0	0.64966	1.14075	
158.0	0.0	0.63629	1.12207	
159.0	0.0	0.64014	1.13361	
160.0	0.0	0.62915	1.1239	
161.0	0.0	0.63574	1.1261	
162.0	0.0	0.62476	1.11731	
163.0	0.0	0.62915	1.11932	
164.0	0.0	0.6167	1.11108	
165.0	0.0	0.62036	1.10669	
166.0	0.0	0.60681	1.10321	
167.0	0.0	0.60864	1.10376	
168.0	0.0	0.59583	1.09424	
169.0	0.0	0.59949	1.09296	
170.0	0.0	0.58667	1.08765	
171.0	0.0	0.59143	1.0849	
172.0	0.0	0.58118	1.07812	
173.0	0.0	0.58704	1.07684	
174.0	0.0	0.57715	1.05597	
175.0	0.0	0.58337	1.0675	
176.0	0.0	0.5722	1.05908	
177.0	0.0	0.57605	1.05981	
178.0	0.0	0.5636	1.05615	
179.0	0.0	0.56543	1.05542	
180.0	0.0	0.55115	1.04187	
181.0	0.0	0.55225	1.05066	
182.0	0.0	0.53741	1.04773	
183.0	0.0	0.53796	1.04718	
184.0	0.0	0.52203	1.03986	
185.0	0.0	0.52258	1.03638	
186.0	0.0	0.50684	1.03583	
187.0	0.0	0.50793	1.0329	
188.0	0.0	0.49292	1.0307	
189.0	0.0	0.49512	1.02759	
190.0	0.0	0.48157	1.02521	
191.0	0.0	0.4856	1.02686	
192.0	0.0	0.47278	1.01807	
193.0	0.0	0.47644	1.00813	
194.0	0.0	0.46399	1.01202	
195.0	0.0	0.46875	1.01221	
196.0	0.0	0.45776	1.00763	
197.0	0.0	0.46252	1.00049	
198.0	0.0	0.45044	0.99637	
199.0	0.0	0.45447	0.99756	
200.0	0.0	0.43945	0.98639	
201.0	0.0	0.43872	0.96808	
202.0	0.0	0.42224	0.96295	
203.0	0.0	0.42023	0.95105	
204.0	0.0	0.4021	0.92816	
205.0	0.0	0.3999	0.91205	
206.0	0.0	0.38342	0.89612	
207.0	0.0	0.38525	0.87964	
208.0	0.0	0.37317	0.85803	
209.0	0.0	0.3772	0.84229	
210.0	0.0	0.36255	0.83276	
211.0	0.0	0.36255	0.82452	
212.0	0.0	0.34534	0.81226	
213.0	0.0	0.3446	0.80585	
214.0	0.0	0.32812	0.78479	
215.0	0.0	0.32703	0.77637	
216.0	0.0	0.31201	0.77344	
217.0	0.0	0.31165	0.76025	
218.0	0.0	0.29663	0.73132	
219.0	0.0	0.2959	0.73242	
220.0	0.0	0.27832	0.71704	
221.0	0.0	0.27576	0.70422	
222.0	0.0	0.25781	0.68811	
223.0	0.0	0.25415	0.67822	
224.0	0.0	0.23602	0.66101	
225.0	0.0	0.23254	0.64819	
226.0	0.0	0.21387	0.63313	
227.0	0.0	0.21167	0.62439	
228.0	0.0	0.19446	0.60443	
229.0	0.0	0.19263	0.59363	
230.0	0.0	0.17505	0.58264	
231.0	0.0	0.17157	0.57623	
232.0	0.0	0.15363	0.56396	
233.0	0.0	0.14941	0.55261	
234.0	0.0	0.13	0.5462	
235.0	0.0	0.12579	0.53485	
236.0	0.0	0.10638	0.53027	
237.0	0.0	0.10327	0.51562	
238.0	0.0	0.08386	0.51416	
239.0	0.0	0.08167	0.49896	
240.0	0.0	0.06445	0.49054	
241.0	0.0	0.06445	0.4845	
242.0	0.0	0.04834	0.4726	
243.0	0.0	0.04907	0.46399	
244.0	0.0	0.03387	0.43945	
245.0	0.0	0.03442	0.4433	
246.0	0.0	0.01831	0.43597	
247.0	0.0	0.01758	0.42957	
248.0	0.0	0.0011	0.42554	
249.0	0.0	-0.0011	0.42279	
250.0	0.0	-0.01959	0.40631	
251.0	0.0	-0.02234	0.40283	
252.0	0.0	-0.04175	0.39423	
253.0	0.0	-0.04541	0.39148	
254.0	0.0	-0.06409	0.39258	
255.0	0.0	-0.06665	0.38855	
256.0	0.0	-0.07764	0.37482	
257.0	0.0	-0.06848	0.36017	
258.0	0.0	-0.07361	0.35394	
259.0	0.0	-0.05878	0.33893	
260.0	0.0	-0.05914	0.31531	
261.0	0.0	-0.04504	0.30396	
262.0	0.0	-0.05054	0.30469	
263.0	0.0	-0.04303	0.30579	
264.0	0.0	-0.05273	0.32684	
265.0	0.0	-0.04303	0.36401	
266.0	0.0	-0.04431	0.41107	
267.0	0.0	-0.02289	0.45099	
268.0	0.0	-0.0152	0.48779	
269.0	0.0	0.00916	0.5354	
270.0	0.0	0.01831	0.56598	
271.0	0.0	0.04193	0.58997	
272.0	0.0	0.04797	0.60498	
273.0	0.0	0.06628	0.62137	
274.0	0.0	0.0639	0.62714	
275.0	0.0	0.07324	0.62384	
276.0	0.0	0.06226	0.64655	
277.0	0.0	0.06189	0.65295	
278.0	0.0	0.04138	0.6709	
279.0	0.0	0.03296	0.68207	
280.0	0.0	0.00824	0.68738	
281.0	0.0	-0.00037	0.69214	
282.0	0.0	-0.02271	0.69214	
283.0	0.0	-0.02783	0.67603	
284.0	0.0	-0.04651	0.67969	
285.0	0.0	-0.04614	0.66522	
286.0	0.0	-0.06061	0.64307	
287.0	0.0	-0.05676	0.62402	
288.0	0.0	-0.06812	0.61652	
289.0	0.0	-0.06299	0.60663	
290.0	0.0	-0.07471	0.59949	
291.0	0.0	-0.06958	0.59766	
292.0	0.0	-0.0813	0.59143	
293.0	0.0	-0.07672	0.5885	
294.0	0.0	-0.08606	0.57825	
295.0	0.0	-0.07507	0.57806	
296.0	0.0	-0.07526	0.57092	
297.0	0.0	-0.05511	0.5658	
298.0	0.0	-0.04706	0.56433	
299.0	0.0	-0.02106	0.56433	
300.0	0.0	-0.00879	0.57111	
301.0	0.0	0.02161	0.57843	
302.0	0.0	0.03845	0.58081	
303.0	0.0	0.07251	0.58008	
304.0	0.0	0.09229	0.58612	
305.0	0.0	0.12524	0.59967	
306.0	0.0	0.13806	0.59798	
307.0	0.0	0.16406	0.60992	
308.0	0.0	0.17468	0.62988	
309.0	0.0	0.19922	0.65112	
310.0	0.0	0.20801	0.66302	
311.0	0.0	0.23181	0.67236	
312.0	0.0	0.23767	0.67859	
313.0	0.0	0.25818	0.68573	
314.0	0.0	0.26111	0.68152	
315.0	0.0	0.27814	0.69159	
316.0	0.0	0.27905	0.69543	
317.0	0.0	0.29407	0.70496	
318.0	0.0	0.28894	0.69379	
319.0	0.0	0.29755	0.70862	
320.0	0.0	0.28619	0.71503	
321.0	0.0	0.28638	0.71777	
322.0	0.0	0.2688	0.71704	
323.0	0.0	0.26495	0.71466	
324.0	0.0	0.24426	0.70862	
325.0	0.0	0.23804	0.70276	
326.0	0.0	0.2168	0.6936	
327.0	0.0	0.21057	0.68683	
328.0	0.0	0.19025	0.67932	
329.0	0.0	0.18622	0.66046	
330.0	0.0	0.16718	0.65863	
331.0	0.0	0.16479	0.66907	
332.0	0.0	0.14539	0.65991	
333.0	0.0	0.14209	0.65918	
334.0	0.0	0.12598	0.66302	
335.0	0.0	0.12817	0.66595	
336.0	0.0	0.11682	0.66522	
337.0	0.0	0.12305	0.66962	
338.0	0.0	0.11133	0.66431	
339.0	0.0	0.11243	0.65918	
340.0	0.0	0.09521	0.64563	
341.0	0.0	0.09338	0.63483	
342.0	0.0	0.07727	0.62164	
343.0	0.0	0.078	0.61523	
344.0	0.0	0.06061	0.60681	
345.0	0.0	0.05713	0.60425	
346.0	0.0	0.03662	0.59711	
347.0	0.0	0.03296	0.5885	
348.0	0.0	0.01685	0.59436	
349.0	0.0	0.01904	0.59363	
350.0	0.0	0.00787	0.59509	
351.0	0.0	0.01648	0.6026	
352.0	0.0	0.00806	0.60022	
353.0	0.0	0.01447	0.61926	
354.0	0.0	0.00165	0.62137	
355.0	0.0	0.00421	0.61047	
356.0	0.0	-0.01044	0.62311	
357.0	0.0	-0.00659	0.62366	
358.0	0.0	-0.01868	0.62256	
359.0	0.0	-0.01044	0.63483	
360.0	0.0	-0.01685	0.64948	
361.0	0.0	-0.00403	0.67731	
362.0	0.0	-0.00623	0.6925	
363.0	0.0	0.00897	0.7077	
364.0	0.0	0.00714	0.72684	
365.0	0.0	0.01959	0.73544	
366.0	0.0	0.01154	0.72949	
367.0	0.0	0.01685	0.73645	
368.0	0.0	0.00256	0.73663	
369.0	0.0	0.00403	0.74084	
370.0	0.0	-0.01062	0.74377	
371.0	0.0	-0.00787	0.75311	
372.0	0.0	-0.02124	0.74762	
373.0	0.0	-0.01904	0.77051	
374.0	0.0	-0.03442	0.76978	
375.0	0.0	-0.03625	0.79156	
376.0	0.0	-0.05814	0.8053	
377.0	0.0	-0.06848	0.82269	
378.0	0.0	-0.09888	0.83167	
379.0	0.0	-0.11426	0.85291	
380.0	0.0	-0.14484	0.86737	
381.0	0.0	-0.16003	0.88	
382.0	0.0	-0.18787	0.89676	
383.0	0.0	-0.19867	0.90454	
384.0	0.0	-0.22266	0.91388	
385.0	0.0	-0.22925	0.92303	
386.0	0.0	-0.24939	0.92853	
387.0	0.0	-0.25323	0.93457	
388.0	0.0	-0.27191	0.92871	
389.0	0.0	-0.27209	0.92798	
390.0	0.0	-0.28766	0.91425	
391.0	0.0	-0.28473	0.90546	
392.0	0.0	-0.297	0.89191	
393.0	0.0	-0.28967	0.8822	
394.0	0.0	-0.29645	0.87158	
395.0	0.0	-0.28308	0.86041	
396.0	0.0	-0.28601	0.8465	
397.0	0.0	-0.2699	0.84174	
398.0	0.0	-0.26953	0.83057	
399.0	0.0	-0.25012	0.82214	
400.0	0.0	-0.24683	0.81445	
401.0	0.0	-0.22449	0.81317	
402.0	0.0	-0.21826	0.79706	
403.0	0.0	-0.19592	0.81866	
404.0	0.0	-0.18823	0.81775	
405.0	0.0	-0.1626	0.83185	
406.0	0.0	-0.15051	0.83789	
407.0	0.0	-0.12012	0.854	
408.0	0.0	-0.10291	0.85345	
409.0	0.0	-0.065	0.86902	
410.0	0.0	-0.03827	0.87048	
411.0	0.0	0.00659	0.88184	
412.0	0.0	0.03699	0.88147	
413.0	0.0	0.08276	0.8952	
414.0	0.0	0.11499	0.9137	
415.0	0.0	0.16315	0.94116	
416.0	0.0	0.19739	0.96625	
417.0	0.0	0.24646	0.98621	
418.0	0.0	0.27979	1.01129	
419.0	0.0	0.32666	1.05615	
420.0	0.0	0.35724	1.08032	
421.0	0.0	0.39954	1.10632	
422.0	0.0	0.42426	1.12532	
423.0	0.0	0.46179	1.14368	
424.0	0.0	0.48212	1.16565	
425.0	0.0	0.51636	1.17206	
426.0	0.0	0.53357	1.20135	
427.0	0.0	0.56287	1.22351	
428.0	0.0	0.57349	1.23431	
429.0	0.0	0.59656	1.25043	
430.0	0.0	0.60168	1.26031	
431.0	0.0	0.62073	1.26709	
432.0	0.0	0.62201	1.27716	
433.0	0.0	0.63977	1.27808	
434.0	0.0	0.63885	1.29016	
435.0	0.0	0.65332	1.29236	
436.0	0.0	0.64893	1.29913	
437.0	0.0	0.65991	1.30225	
438.0	0.0	0.65295	1.31177	
439.0	0.0	0.66138	1.31012	
440.0	0.0	0.6524	1.32349	
441.0	0.0	0.65991	1.33154	
442.0	0.0	0.64929	1.32532	
443.0	0.0	0.65552	1.34656	
444.0	0.0	0.64398	1.35791	
445.0	0.0	0.64893	1.34564	
446.0	0.0	0.63574	1.36523	
447.0	0.0	0.64032	1.3678	
448.0	0.0	0.62677	1.37164	
449.0	0.0	0.63062	1.37659	
450.0	0.0	0.61597	1.37238	
451.0	0.0	0.61871	1.38313	
452.0	0.0	0.60352	1.37677	
453.0	0.0	0.60388	1.38702	
454.0	0.0	0.58887	1.38245	
455.0	0.0	0.59106	1.38318	
456.0	0.0	0.57605	1.37512	
457.0	0.0	0.5788	1.37128	
458.0	0.0	0.56433	1.35571	
459.0	0.0	0.56763	1.37292	
460.0	0.0	0.55444	1.37054	
461.0	0.0	0.55884	1.37366	
462.0	0.0	0.54364	1.37402	
463.0	0.0	0.54602	1.37604	
464.0	0.0	0.53027	1.36633	
465.0	0.0	0.53192	1.36798	
466.0	0.0	0.51562	1.35114	
467.0	0.0	0.51654	1.34875	
468.0	0.0	0.49951	1.33337	
469.0	0.0	0.49768	1.32568	
470.0	0.0	0.47681	1.32092	
471.0	0.0	0.47021	1.31396	
472.0	0.0	0.44385	1.29712	
473.0	0.0	0.43158	1.29163	
474.0	0.0	0.40283	1.26526	
475.0	0.0	0.39038	1.26837	
476.0	0.0	0.36182	1.24805	
477.0	0.0	0.35303	1.23413	
478.0	0.0	0.32922	1.21271	
479.0	0.0	0.32098	1.20117	
480.0	0.0	0.297	1.1814	
481.0	0.0	0.28857	1.16199	
482.0	0.0	0.26587	1.13635	
483.0	0.0	0.26147	1.1228	
484.0	0.0	0.24335	1.09241	
485.0	0.0	0.2439	1.09012	
486.0	0.0	0.23035	1.06934	
487.0	0.0	0.23584	1.05212	
488.0	0.0	0.22412	1.03381	
489.0	0.0	0.22998	1.01587	
490.0	0.0	0.21826	0.99756	
491.0	0.0	0.22247	0.98465	
492.0	0.0	0.20837	0.97083	
493.0	0.0	0.2113	0.94025	
494.0	0.0	0.19629	0.92395	
495.0	0.0	0.19849	0.91187	
496.0	0.0	0.18384	0.88971	
497.0	0.0	0.18787	0.86426	
498.0	0.0	0.17468	0.83093	
499.0	0.0	0.17963	0.81812	
500.0	0.0	0.16443	0.78882	
501.0	0.0	0.16443	0.7597	
502.0	0.0	0.14648	0.74249	
503.0	0.0	0.14319	0.71942	
504.0	0.0	0.12286	0.67346	
505.0	0.0	0.11847	0.66486	
506.0	0.0	0.09778	0.63373	
507.0	0.0	0.09247	0.59949	
508.0	0.0	0.07178	0.57074	
509.0	0.0	0.0672	0.53302	
510.0	0.0	0.04688	0.50427	
511.0	0.0	0.04248	0.4715	
512.0	0.0	0.02197	0.43726	
513.0	0.0	0.01758	0.40649	
514.0	0.0	-0.00439	0.37866	
515.0	0.0	-0.01025	0.34753	
516.0	0.0	-0.03333	0.32153	
517.0	0.0	-0.04047	0.31046	
518.0	0.0	-0.06427	0.28546	
519.0	0.0	-0.07178	0.27722	
520.0	0.0	-0.09521	0.25671	
521.0	0.0	-0.10254	0.23987	
522.0	0.0	-0.12634	0.21625	
523.0	0.0	-0.13367	0.1886	
524.0	0.0	-0.15674	0.17889	
525.0	0.0	-0.16333	0.16223	
526.0	0.0	-0.18604	0.14429	
527.0	0.0	-0.19153	0.13293	
528.0	0.0	-0.21295	0.11426	
529.0	0.0	-0.21753	0.10748	
530.0	0.0	-0.23767	0.10437	
531.0	0.0	-0.24042	0.09979	
532.0	0.0	-0.25928	0.08606	
533.0	0.0	-0.26019	0.08148	
534.0	0.0	-0.27722	0.08469	
535.0	0.0	-0.27576	0.07855	
536.0	0.0	-0.29187	0.08057	
537.0	0.0	-0.28821	0.06848	
538.0	0.0	-0.30157	0.07251	
539.0	0.0	-0.29663	0.06885	
540.0	0.0	-0.30743	0.08295	
541.0	0.0	-0.30103	0.08386	
542.0	0.0	-0.31091	0.10034	
543.0	0.0	-0.29791	0.10547	
544.0	0.0	-0.29572	0.12708	
545.0	0.0	-0.27063	0.14301	
546.0	0.0	-0.25909	0.15491	
547.0	0.0	-0.23071	0.17505	
548.0	0.0	-0.21918	0.18018	
549.0	0.0	-0.19409	0.20874	
550.0	0.0	-0.1853	0.23163	
551.0	0.0	-0.1582	0.27704	
552.0	0.0	-0.14502	0.30501	
553.0	0.0	-0.11407	0.34259	
554.0	0.0	-0.09851	0.37152	
555.0	0.0	-0.0683	0.38745	
556.0	0.0	-0.05603	0.44238	
557.0	0.0	-0.0282	0.47186	
558.0	0.0	-0.01868	0.53101	
559.0	0.0	0.00476	0.57916	
560.0	0.0	0.00989	0.63849	
561.0	0.0	0.03021	0.68976	
562.0	0.0	0.03168	0.7207	
563.0	0.0	0.04834	0.7229	
564.0	0.0	0.04852	0.73425	
565.0	0.0	0.06519	0.71997	
566.0	0.0	0.06555	0.69122	
567.0	0.0	0.08331	0.66321	
568.0	0.0	0.08167	0.64398	
569.0	0.0	0.09631	0.62549	
570.0	0.0	0.09247	0.60846	
571.0	0.0	0.10693	0.59418	
572.0	0.0	0.10254	0.56323	
573.0	0.0	0.11462	0.53906	
574.0	0.0	0.1073	0.52588	
575.0	0.0	0.11572	0.49384	
576.0	0.0	0.10693	0.47699	
577.0	0.0	0.11572	0.45886	
578.0	0.0	0.10803	0.43854	
579.0	0.0	0.11975	0.4222	
580.0	0.0	0.117	0.41309	
581.0	0.0	0.13202	0.40778	
582.0	0.0	0.13184	0.41858	
583.0	0.0	0.14868	0.42279	
584.0	0.0	0.15015	0.42371	
585.0	0.0	0.16772	0.43176	
586.0	0.0	0.16846	0.43652	
587.0	0.0	0.1853	0.4541	
588.0	0.0	0.18384	0.46143	
589.0	0.0	0.1972	0.49329	
590.0	0.0	0.19208	0.5072	
591.0	0.0	0.20105	0.52766	
592.0	0.0	0.19098	0.54639	
593.0	0.0	0.19556	0.55389	
594.0	0.0	0.18036	0.57733	
595.0	0.0	0.18201	0.59161	
596.0	0.0	0.16626	0.60443	
597.0	0.0	0.16809	0.6123	
598.0	0.0	0.15344	0.62494	
599.0	0.0	0.1582	0.63885	
600.0	0.0	0.14594	0.64233	
601.0	0.0	0.15454	0.65295	
602.0	0.0	0.14575	0.66357	
603.0	0.0	0.15784	0.67072	
604.0	0.0	0.15234	0.6806	
605.0	0.0	0.16406	0.69104	
606.0	0.0	0.15784	0.69214	
607.0	0.0	0.16846	0.70331	
608.0	0.0	0.1604	0.70642	
609.0	0.0	0.16846	0.71283	
610.0	0.0	0.1604	0.70972	
611.0	0.0	0.17175	0.7196	
612.0	0.0	0.1712	0.72052	
613.0	0.0	0.1897	0.72418	
614.0	0.0	0.1897	0.72327	
615.0	0.0	0.20471	0.72986	
616.0	0.0	0.20114	0.7359	
617.0	0.0	0.21533	0.74377	
618.0	0.0	0.2135	0.74341	
619.0	0.0	0.2309	0.75183	
620.0	0.0	0.23438	0.75861	
621.0	0.0	0.25928	0.75403	
622.0	0.0	0.27264	0.76135	
623.0	0.0	0.30505	0.76721	
624.0	0.0	0.32245	0.77032	
625.0	0.0	0.35742	0.77362	
626.0	0.0	0.3761	0.77728	
627.0	0.0	0.40906	0.81335	
628.0	0.0	0.42627	0.83826	
629.0	0.0	0.4574	0.87158	
630.0	0.0	0.47168	0.90234	
631.0	0.0	0.50171	0.92908	
632.0	0.0	0.51453	0.96716	
633.0	0.0	0.54016	0.99701	
634.0	0.0	0.54712	1.00562	
635.0	0.0	0.56506	1.03931	
636.0	0.0	0.56323	1.05249	
637.0	0.0	0.57532	1.06897	
638.0	0.0	0.56763	1.08252	
639.0	0.0	0.57495	1.09259	
640.0	0.0	0.56104	1.09662	
641.0	0.0	0.5603	1.09717	
642.0	0.0	0.53833	1.09515	
643.0	0.0	0.52899	1.09918	
644.0	0.0	0.49951	1.08508	
645.0	0.0	0.48376	1.07666	
646.0	0.0	0.45062	1.06384	
647.0	0.0	0.43542	1.04572	
648.0	0.0	0.40558	1.02118	
649.0	0.0	0.39478	1.00232	
650.0	0.0	0.36877	0.98254	
651.0	0.0	0.36035	0.95874	
652.0	0.0	0.33691	0.94043	
653.0	0.0	0.33032	0.92706	
654.0	0.0	0.30872	0.93164	
655.0	0.0	0.30505	0.92358	
656.0	0.0	0.28601	0.91077	
657.0	0.0	0.28473	0.91077	
658.0	0.0	0.2677	0.90088	
659.0	0.0	0.26971	0.89575	
660.0	0.0	0.2558	0.89319	
661.0	0.0	0.26074	0.88989	
662.0	0.0	0.24902	0.87836	
663.0	0.0	0.25488	0.88623	
664.0	0.0	0.24426	0.88239	
665.0	0.0	0.25195	0.89008	
666.0	0.0	0.24243	0.89447	
667.0	0.0	0.25122	0.89282	
668.0	0.0	0.2439	0.89905	
669.0	0.0	0.25433	0.90198	
670.0	0.0	0.24756	0.89136	
671.0	0.0	0.25763	0.90619	
672.0	0.0	0.24976	0.90454	
673.0	0.0	0.25763	0.89886	
674.0	0.0	0.24701	0.90262	
675.0	0.0	0.25378	0.8963	
676.0	0.0	0.24243	0.89264	
677.0	0.0	0.25085	0.89832	
678.0	0.0	0.24316	0.89095	
679.0	0.0	0.25745	0.8877	
680.0	0.0	0.25598	0.89319	
681.0	0.0	0.27301	0.89447	
682.0	0.0	0.26953	0.88348	
683.0	0.0	0.28198	0.89612	
684.0	0.0	0.27686	0.89941	
685.0	0.0	0.28876	0.90619	
686.0	0.0	0.28235	0.90747	
687.0	0.0	0.29663	0.89923	
688.0	0.0	0.29224	0.90637	
689.0	0.0	0.30725	0.91022	
690.0	0.0	0.30396	0.91077	
691.0	0.0	0.31824	0.91351	
692.0	0.0	0.31348	0.91003	
693.0	0.0	0.32666	0.9126	
694.0	0.0	0.32117	0.9082	
695.0	0.0	0.33179	0.9137	
696.0	0.0	0.32446	0.91168	
697.0	0.0	0.33527	0.9093	
698.0	0.0	0.32758	0.88934	
699.0	0.0	0.33838	0.89832	
700.0	0.0	0.33215	0.87909	
701.0	0.0	0.34424	0.89062	
702.0	0.0	0.33801	0.87048	
703.0	0.0	0.34937	0.87909	
704.0	0.0	0.34131	0.87396	
705.0	0.0	0.35229	0.87268	
706.0	0.0	0.34332	0.86938	
707.0	0.0	0.35358	0.85199	
708.0	0.0	0.34534	0.85968	
709.0	0.0	0.35577	0.85767	
710.0	0.0	0.34827	0.83405	
711.0	0.0	0.3598	0.84741	
712.0	0.0	0.35339	0.83862	
713.0	0.0	0.36566	0.82581	
714.0	0.0	0.35999	0.83569	
715.0	0.0	0.37225	0.83313	
716.0	0.0	0.36658	0.8205	
717.0	0.0	0.37866	0.82063	
718.0	0.0	0.37061	0.81464	
719.0	0.0	0.38104	0.81079	
720.0	0.0	0.37024	0.79926	
721.0	0.0	0.3761	0.79266	
722.0	0.0	0.36163	0.78534	
723.0	0.0	0.36511	0.78314	
724.0	0.0	0.3479	0.77197	
725.0	0.0	0.3479	0.75769	
726.0	0.0	0.32867	0.74341	
727.0	0.0	0.32684	0.724	
728.0	0.0	0.30579	0.70239	
729.0	0.0	0.30139	0.685	
730.0	0.0	0.27686	0.65991	
731.0	0.0	0.271	0.62622	
732.0	0.0	0.24646	0.6145	
733.0	0.0	0.24023	0.59216	
734.0	0.0	0.21716	0.56213	
735.0	0.0	0.2113	0.53741	
736.0	0.0	0.18823	0.51105	
737.0	0.0	0.18384	0.48926	
738.0	0.0	0.16077	0.46143	
739.0	0.0	0.15491	0.43231	
740.0	0.0	0.13184	0.40833	
741.0	0.0	0.12378	0.38232	
742.0	0.0	0.09741	0.35413	
743.0	0.0	0.08807	0.32172	
744.0	0.0	0.06079	0.29407	
745.0	0.0	0.05072	0.27905	
746.0	0.0	0.0238	0.25891	
747.0	0.0	0.01685	0.23364	
748.0	0.0	-0.00293	0.22293	
749.0	0.0	-0.00238	0.2157	
750.0	0.0	-0.0174	0.21002	
751.0	0.0	-0.00806	0.20526	
752.0	0.0	-0.01044	0.19629	
753.0	0.0	0.01208	0.20325	
754.0	0.0	0.02142	0.20142	
755.0	0.0	0.05237	0.21991	
756.0	0.0	0.06757	0.23511	
757.0	0.0	0.10144	0.25809	
758.0	0.0	0.11664	0.28546	
759.0	0.0	0.14832	0.3208	
760.0	0.0	0.16077	0.35559	
761.0	0.0	0.18896	0.41418	
762.0	0.0	0.19812	0.46509	
763.0	0.0	0.22595	0.51581	
764.0	0.0	0.23328	0.55957	
765.0	0.0	0.25635	0.60095	
766.0	0.0	0.25891	0.62091	
767.0	0.0	0.27722	0.65112	
768.0	0.0	0.27576	0.65021	
769.0	0.0	0.29224	0.67548	
770.0	0.0	0.28857	0.68536	
771.0	0.0	0.29846	0.69397	
772.0	0.0	0.28418	0.698	
773.0	0.0	0.28345	0.69672	
774.0	0.0	0.25928	0.69507	
775.0	0.0	0.24921	0.68001	
776.0	0.0	0.21918	0.66193	
777.0	0.0	0.20361	0.64746	
778.0	0.0	0.16919	0.62036	
779.0	0.0	0.1507	0.59875	
780.0	0.0	0.11426	0.55737	
781.0	0.0	0.09668	0.54163	
782.0	0.0	0.0639	0.50372	
783.0	0.0	0.05145	0.47626	
784.0	0.0	0.02545	0.46326	
785.0	0.0	0.01959	0.44513	
786.0	0.0	-0.0011	0.40942	
787.0	0.0	-0.00183	0.41254	
788.0	0.0	-0.01758	0.38727	
789.0	0.0	-0.01373	0.39642	
790.0	0.0	-0.0271	0.39148	
791.0	0.0	-0.02087	0.37532	
792.0	0.0	-0.03369	0.36914	
793.0	0.0	-0.02765	0.37921	
794.0	0.0	-0.04028	0.37976	
795.0	0.0	-0.03387	0.37738	
796.0	0.0	-0.04541	0.37573	
797.0	0.0	-0.03809	0.38123	
798.0	0.0	-0.04889	0.37463	
799.0	0.0	-0.04065	0.37903	
800.0	0.0	-0.05017	0.3653	
801.0	0.0	-0.04083	0.37482	
802.0	0.0	-0.05054	0.35188	
803.0	0.0	-0.04138	0.36182	
804.0	0.0	-0.05127	0.34589	
805.0	0.0	-0.04248	0.34314	
806.0	0.0	-0.05255	0.32648	
807.0	0.0	-0.04248	0.33197	
808.0	0.0	-0.0509	0.31219	
809.0	0.0	-0.03992	0.2926	
810.0	0.0	-0.04797	0.28748	
811.0	0.0	-0.03754	0.26495	
812.0	0.0	-0.04834	0.24664	
813.0	0.0	-0.04248	0.23035	
814.0	0.0	-0.05713	0.21698	
815.0	0.0	-0.05347	0.19574	
816.0	0.0	-0.06921	0.17615	
817.0	0.0	-0.06519	0.15765	
818.0	0.0	-0.07654	0.13586	
819.0	0.0	-0.06555	0.11865	
820.0	0.0	-0.06958	0.09723	
821.0	0.0	-0.05566	0.07324	
822.0	0.0	-0.06152	0.05887	
823.0	0.0	-0.0498	0.03973	
824.0	0.0	-0.05676	0.02051	
825.0	0.0	-0.04431	0.00128	
826.0	0.0	-0.05127	-0.01932	
827.0	0.0	-0.03882	-0.03461	
828.0	0.0	-0.04614	-0.05017	
829.0	0.0	-0.03625	-0.06793	
830.0	0.0	-0.04688	-0.0791	
831.0	0.0	-0.04175	-0.09155	
832.0	0.0	-0.05731	-0.10217	
833.0	0.0	-0.05658	-0.11316	
834.0	0.0	-0.07581	-0.12634	
835.0	0.0	-0.07764	-0.13806	
836.0	0.0	-0.09631	-0.14868	
837.0	0.0	-0.09888	-0.15363	
838.0	0.0	-0.11865	-0.1615	
839.0	0.0	-0.12085	-0.16772	
840.0	0.0	-0.14099	-0.18164	
841.0	0.0	-0.14447	-0.17908	
842.0	0.0	-0.16534	-0.18549	
843.0	0.0	-0.17139	-0.18842	
844.0	0.0	-0.19666	-0.19775	
845.0	0.0	-0.20654	-0.19666	
846.0	0.0	-0.23346	-0.20746	
847.0	0.0	-0.24573	-0.20453	
848.0	0.0	-0.27356	-0.20966	
849.0	0.0	-0.28546	-0.21405	
850.0	0.0	-0.31256	-0.21881	
851.0	0.0	-0.32368	-0.22266	
852.0	0.0	-0.34827	-0.2287	
853.0	0.0	-0.35632	-0.22568	
854.0	0.0	-0.37994	-0.23987	
855.0	0.0	-0.38727	-0.23218	
856.0	0.0	-0.40924	-0.2384	
857.0	0.0	-0.41565	-0.2373	
858.0	0.0	-0.43762	-0.23465	
859.0	0.0	-0.4433	-0.23309	
860.0	0.0	-0.46436	-0.24197	
861.0	0.0	-0.46948	-0.23474	
862.0	0.0	-0.48962	-0.23071	
863.0	0.0	-0.49292	-0.22705	
864.0	0.0	-0.51196	-0.22687	
865.0	0.0	-0.51361	-0.22943	
866.0	0.0	-0.53101	-0.22064	
867.0	0.0	-0.53064	-0.22293	
868.0	0.0	-0.54565	-0.21021	
869.0	0.0	-0.54272	-0.21066	
870.0	0.0	-0.55609	-0.20435	
871.0	0.0	-0.55078	-0.18915	
872.0	0.0	-0.56122	-0.19061	
873.0	0.0	-0.55261	-0.18292	
874.0	0.0	-0.56122	-0.16882	
875.0	0.0	-0.55078	-0.16003	
876.0	0.0	-0.55701	-0.16388	
877.0	0.0	-0.54474	-0.15491	
878.0	0.0	-0.54913	-0.14996	
879.0	0.0	-0.53522	-0.13129	
880.0	0.0	-0.53925	-0.12085	
881.0	0.0	-0.52405	-0.10986	
882.0	0.0	-0.52661	-0.11279	
883.0	0.0	-0.51086	-0.0921	
884.0	0.0	-0.51306	-0.08368	
885.0	0.0	-0.49768	-0.07361	
886.0	0.0	-0.50024	-0.07251	
887.0	0.0	-0.48505	-0.05457	
888.0	0.0	-0.49036	-0.05273	
889.0	0.0	-0.47864	-0.03625	
890.0	0.0	-0.48541	-0.02948	
891.0	0.0	-0.47488	-0.02637	
892.0	0.0	-0.48285	-0.01611	
893.0	0.0	-0.47278	-0.00494	
894.0	0.0	-0.47791	-0.00677	
895.0	0.0	-0.46289	0.00916	
896.0	0.0	-0.46307	0.01666	
897.0	0.0	-0.44751	0.02454	
898.0	0.0	-0.45117	0.03607	
899.0	0.0	-0.43872	0.0472	
900.0	0.0	-0.44293	0.05859	
901.0	0.0	-0.42938	0.05933	
902.0	0.0	-0.43231	0.08496	
903.0	0.0	-0.41583	0.08954	
904.0	0.0	-0.41528	0.10547	
905.0	0.0	-0.39697	0.1214	
906.0	0.0	-0.39441	0.12048	
907.0	0.0	-0.37445	0.1452	
908.0	0.0	-0.37207	0.15491	
909.0	0.0	-0.35248	0.17175	
910.0	0.0	-0.34973	0.18713	
911.0	0.0	-0.33051	0.19684	
912.0	0.0	-0.32776	0.21442	
913.0	0.0	-0.30817	0.22504	
914.0	0.0	-0.30505	0.22888	
915.0	0.0	-0.28487	0.24133	
916.0	0.0	-0.28033	0.25928	
917.0	0.0	-0.25928	0.26001	
918.0	0.0	-0.2536	0.27777	
919.0	0.0	-0.23291	0.28583	
920.0	0.0	-0.22925	0.297	
921.0	0.0	-0.21021	0.30396	
922.0	0.0	-0.20874	0.31087	
923.0	0.0	-0.19043	0.32391	
924.0	0.0	-0.18951	0.33948	
925.0	0.0	-0.17212	0.34845	
926.0	0.0	-0.17139	0.35632	
927.0	0.0	-0.15417	0.35468	
928.0	0.0	-0.15271	0.37427	
929.0	0.0	-0.13403	0.38159	
930.0	0.0	-0.13037	0.37903	
931.0	0.0	-0.1106	0.39532	
932.0	0.0	-0.10583	0.40155	
933.0	0.0	-0.08533	0.40814	
934.0	0.0	-0.07983	0.40924	
935.0	0.0	-0.05969	0.41711	
936.0	0.0	-0.05493	0.42297	
937.0	0.0	-0.03479	0.4303	
938.0	0.0	-0.03094	0.43579	
939.0	0.0	-0.01099	0.44563	
940.0	0.0	-0.00769	0.45483	
941.0	0.0	0.01245	0.46381	
942.0	0.0	0.01611	0.45996	
943.0	0.0	0.03571	0.47003	
944.0	0.0	0.04047	0.47278	
945.0	0.0	0.06097	0.48871	
946.0	0.0	0.06665	0.48743	
947.0	0.0	0.08826	0.49841	
948.0	0.0	0.09521	0.50244	
949.0	0.0	0.11792	0.505	
950.0	0.0	0.12488	0.5127	
951.0	0.0	0.14685	0.50555	
952.0	0.0	0.15381	0.52203	
953.0	0.0	0.17542	0.52661	
954.0	0.0	0.18164	0.5321	
955.0	0.0	0.20288	0.53778	
956.0	0.0	0.20947	0.53998	
957.0	0.0	0.22998	0.54547	
958.0	0.0	0.23584	0.55243	
959.0	0.0	0.25653	0.55811	
960.0	0.0	0.26166	0.56085	
961.0	0.0	0.28015	0.56232	
962.0	0.0	0.28381	0.56561	
963.0	0.0	0.30139	0.57568	
964.0	0.0	0.30359	0.57449	
965.0	0.0	0.3208	0.57843	
966.0	0.0	0.3219	0.58209	
967.0	0.0	0.33801	0.57935	
968.0	0.0	0.33838	0.59198	
969.0	0.0	0.35303	0.59509	
970.0	0.0	0.34991	0.59656	
971.0	0.0	0.36072	0.60718	
972.0	0.0	0.35413	0.60754	
973.0	0.0	0.36292	0.60406	
974.0	0.0	0.35522	0.61139	
975.0	0.0	0.36768	0.62201	
976.0	0.0	0.36511	0.62073	
977.0	0.0	0.38141	0.62915	
978.0	0.0	0.38086	0.63313	
979.0	0.0	0.39404	0.63959	
980.0	0.0	0.38965	0.64417	
981.0	0.0	0.40027	0.64911	
982.0	0.0	0.39404	0.65497	
983.0	0.0	0.40503	0.65479	
984.0	0.0	0.40063	0.65643	
985.0	0.0	0.414	0.67218	
986.0	0.0	0.41125	0.67548	
987.0	0.0	0.42554	0.68115	
988.0	0.0	0.42242	0.68573	
989.0	0.0	0.43469	0.6861	
990.0	0.0	0.4292	0.70129	
991.0	0.0	0.44019	0.69836	
992.0	0.0	0.43359	0.71008	
993.0	0.0	0.44458	0.72217	
994.0	0.0	0.43726	0.724	
995.0	0.0	0.44751	0.72656	
996.0	0.0	0.44165	0.72675	
997.0	0.0	0.45264	0.72107	
998.0	0.0	0.44678	0.72688	
999.0	0.0	0.45776	0.72986	
1000.0	0.0	0.45227	0.73059	
1001.0	0.0	0.46216	0.73224	
1002.0	0.0	0.4541	0.73151	
1003.0	0.0	0.46289	0.73682	
1004.0	0.0	0.45227	0.7381	
1005.0	0.0	0.45996	0.74084	
1006.0	0.0	0.45044	0.73956	
1007.0	0.0	0.4574	0.74432	
1008.0	0.0	0.44897	0.74432	
1009.0	0.0	0.45776	0.74158	
1010.0	0.0	0.44971	0.74597	
1011.0	0.0	0.46014	0.74194	
1012.0	0.0	0.45264	0.7489	
1013.0	0.0	0.46362	0.75	
1014.0	0.0	0.45703	0.75032	
1015.0	0.0	0.46838	0.7522	
1016.0	0.0	0.46216	0.75165	
1017.0	0.0	0.47278	0.75238	
1018.0	0.0	0.46509	0.75366	
1019.0	0.0	0.47461	0.75183	
1020.0	0.0	0.46527	0.75366	
1021.0	0.0	0.47314	0.76025	
1022.0	0.0	0.46362	0.75824	
1023.0	0.0	0.4704	0.75879	
1024.0	0.0	0.45996	0.76062	
1025.0	0.0	0.46692	0.75275	
1026.0	0.0	0.45557	0.75659	
1027.0	0.0	0.46252	0.76007	
1028.0	0.0	0.45135	0.75732	
1029.0	0.0	0.45886	0.74652	
1030.0	0.0	0.44824	0.75513	
1031.0	0.0	0.4552	0.75769	
1032.0	0.0	0.44458	0.75549	
1033.0	0.0	0.45044	0.75677	
1034.0	0.0	0.44019	0.75348	
1035.0	0.0	0.44714	0.75458	
1036.0	0.0	0.43597	0.75293	
1037.0	0.0	0.44275	0.74854	
1038.0	0.0	0.4314	0.7392	
1039.0	0.0	0.43781	0.75032	
1040.0	0.0	0.4259	0.73535	
1041.0	0.0	0.4325	0.74707	
1042.0	0.0	0.42114	0.74817	
1043.0	0.0	0.42847	0.75	
1044.0	0.0	0.41693	0.74615	
1045.0	0.0	0.42352	0.73535	
1046.0	0.0	0.41272	0.74579	
1047.0	0.0	0.41931	0.74652	
1048.0	0.0	0.40796	0.74103	
1049.0	0.0	0.41565	0.73535	
1050.0	0.0	0.40503	0.7359	
1051.0	0.0	0.41235	0.72931	
1052.0	0.0	0.40137	0.73132	
1053.0	0.0	0.40796	0.72473	
1054.0	0.0	0.39404	0.73444	
1055.0	0.0	0.39716	0.73535	
1056.0	0.0	0.38306	0.72894	
1057.0	0.0	0.38544	0.72894	
1058.0	0.0	0.37024	0.72839	
1059.0	0.0	0.37463	0.73407	
1060.0	0.0	0.36438	0.73096	
1061.0	0.0	0.37299	0.73315	
1062.0	0.0	0.36621	0.73096	
1063.0	0.0	0.37463	0.73224	
1064.0	0.0	0.36292	0.72784	
1065.0	0.0	0.36841	0.73059	
1066.0	0.0	0.35632	0.71777	
1067.0	0.0	0.36292	0.71649	
1068.0	0.0	0.35303	0.71631	
1069.0	0.0	0.36292	0.73022	
1070.0	0.0	0.35596	0.72729	
1071.0	0.0	0.36639	0.72949	
1072.0	0.0	0.36035	0.72968	
1073.0	0.0	0.37024	0.7218	
1074.0	0.0	0.36182	0.72968	
1075.0	0.0	0.37079	0.73865	
1076.0	0.0	0.36108	0.7467	
1077.0	0.0	0.36914	0.74707	
1078.0	0.0	0.35999	0.75256	
1079.0	0.0	0.36749	0.75677	
1080.0	0.0	0.3587	0.75604	
1081.0	0.0	0.36841	0.74377	
1082.0	0.0	0.36053	0.75293	
1083.0	0.0	0.37024	0.74396	
1084.0	0.0	0.36255	0.74194	
1085.0	0.0	0.37244	0.7511	
1086.0	0.0	0.3631	0.7489	
1087.0	0.0	0.37061	0.74579	
1088.0	0.0	0.36053	0.74615	
1089.0	0.0	0.36731	0.74744	
1090.0	0.0	0.35706	0.73059	
1091.0	0.0	0.36475	0.74414	
1092.0	0.0	0.35486	0.7381	
1093.0	0.0	0.362	0.73132	
1094.0	0.0	0.35266	0.74011	
1095.0	0.0	0.36072	0.74194	
1096.0	0.0	0.35229	0.7392	
1097.0	0.0	0.36145	0.73975	
1098.0	0.0	0.35303	0.73718	
1099.0	0.0	0.36273	0.73672	
1100.0	0.0	0.35486	0.73315	
1101.0	0.0	0.3642	0.72931	
1102.0	0.0	0.35486	0.72803	
1103.0	0.0	0.36255	0.73462	
1104.0	0.0	0.35175	0.73151	
1105.0	0.0	0.3587	0.72217	
1106.0	0.0	0.34753	0.72546	
1107.0	0.0	0.35413	0.73352	
1108.0	0.0	0.34314	0.73022	
1109.0	0.0	0.34863	0.73553	
1110.0	0.0	0.33765	0.73425	
1111.0	0.0	0.34497	0.73389	
1112.0	0.0	0.33453	0.73315	
1113.0	0.0	0.34222	0.7337	
1114.0	0.0	0.33289	0.72949	
1115.0	0.0	0.34058	0.73425	
1116.0	0.0	0.33105	0.72688	
1117.0	0.0	0.33929	0.73132	
1118.0	0.0	0.32959	0.72437	
1119.0	0.0	0.33801	0.72363	
1120.0	0.0	0.32776	0.72363	
1121.0	0.0	0.3349	0.71063	
1122.0	0.0	0.32465	0.71924	
1123.0	0.0	0.33179	0.71887	
1124.0	0.0	0.32153	0.72363	
1125.0	0.0	0.32849	0.72363	
1126.0	0.0	0.3175	0.71741	
1127.0	0.0	0.32446	0.72308	
1128.0	0.0	0.31384	0.72107	
1129.0	0.0	0.32007	0.7229	
1130.0	0.0	0.30945	0.72015	
1131.0	0.0	0.31604	0.71869	
1132.0	0.0	0.30579	0.71979	
1133.0	0.0	0.31311	0.71979	
1134.0	0.0	0.30322	0.71704	
1135.0	0.0	0.31055	0.71521	
1136.0	0.0	0.29993	0.70312	
1137.0	0.0	0.30634	0.71869	
1138.0	0.0	0.2926	0.71338	
1139.0	0.0	0.29681	0.70496	
1140.0	0.0	0.28271	0.70734	
1141.0	0.0	0.28528	0.70496	
1142.0	0.0	0.27136	0.71283	
1143.0	0.0	0.27612	0.71869	
1144.0	0.0	0.2666	0.71027	
1145.0	0.0	0.27686	0.7207	
1146.0	0.0	0.271	0.71448	
1147.0	0.0	0.2796	0.71613	
1148.0	0.0	0.26898	0.71942	
1149.0	0.0	0.27631	0.71851	
1150.0	0.0	0.26587	0.72144	
1151.0	0.0	0.27319	0.72217	
1152.0	0.0	0.26477	0.72144	
1153.0	0.0	0.27466	0.72491	
1154.0	0.0	0.26843	0.71887	
1155.0	0.0	0.27997	0.71851	
1156.0	0.0	0.27429	0.72748	
1157.0	0.0	0.28674	0.73169	
1158.0	0.0	0.27979	0.73352	
1159.0	0.0	0.29077	0.73114	
1160.0	0.0	0.28308	0.74432	
1161.0	0.0	0.29315	0.75385	
1162.0	0.0	0.28455	0.74451	
1163.0	0.0	0.29416	0.75916	
1164.0	0.0	0.28674	0.75032	
1165.0	0.0	0.29663	0.75989	
1166.0	0.0	0.28857	0.75787	
1167.0	0.0	0.29828	0.76062	
1168.0	0.0	0.29041	0.75586	
1169.0	0.0	0.29956	0.75751	
1170.0	0.0	0.28912	0.74817	
1171.0	0.0	0.29663	0.76117	
1172.0	0.0	0.28601	0.75879	
1173.0	0.0	0.29315	0.76025	
1174.0	0.0	0.28198	0.75732	
1175.0	0.0	0.28967	0.75916	
1176.0	0.0	0.27942	0.76062	
1177.0	0.0	0.28821	0.75879	
1178.0	0.0	0.28033	0.76044	
1179.0	0.0	0.2915	0.7511	
1180.0	0.0	0.28528	0.76172	
1181.0	0.0	0.2981	0.76465	
1182.0	0.0	0.29333	0.76117	
1183.0	0.0	0.30798	0.76135	
1184.0	0.0	0.30432	0.76199	
1185.0	0.0	0.31714	0.76025	
1186.0	0.0	0.31348	0.75952	
1187.0	0.0	0.3252	0.76355	
1188.0	0.0	0.32062	0.76538	
1189.0	0.0	0.33252	0.76794	
1190.0	0.0	0.32611	0.7652	
1191.0	0.0	0.3371	0.76886	
1192.0	0.0	0.33069	0.76575	
1193.0	0.0	0.34113	0.77051	
1194.0	0.0	0.33417	0.77069	
1195.0	0.0	0.34497	0.76868	
1196.0	0.0	0.33875	0.77271	
1197.0	0.0	0.3501	0.77289	
1198.0	0.0	0.34369	0.77435	
1199.0	0.0	0.35449	0.77655	
1200.0	0.0	0.34863	0.77234	
1201.0	0.0	0.36072	0.77454	
1202.0	0.0	0.35577	0.76904	
1203.0	0.0	0.36786	0.77454	
1204.0	0.0	0.36401	0.77371	
1205.0	0.0	0.37793	0.77234	
1206.0	0.0	0.37573	0.77728	
1207.0	0.0	0.39038	0.77838	
1208.0	0.0	0.38965	0.77655	
1209.0	0.0	0.40466	0.77472	
1210.0	0.0	0.40375	0.77856	
1211.0	0.0	0.42004	0.77985	
1212.0	0.0	0.42096	0.77728	
1213.0	0.0	0.43909	0.77948	
1214.0	0.0	0.44055	0.77802	
1215.0	0.0	0.45795	0.78113	
1216.0	0.0	0.45831	0.77893	
1217.0	0.0	0.47278	0.77966	
1218.0	0.0	0.47058	0.76959	
1219.0	0.0	0.4834	0.78333	
1220.0	0.0	0.47827	0.78424	
1221.0	0.0	0.48926	0.78497	
1222.0	0.0	0.48413	0.78461	
1223.0	0.0	0.49731	0.78772	
1224.0	0.0	0.49548	0.78772	
1225.0	0.0	0.5127	0.78882	
1226.0	0.0	0.51324	0.78543	
1227.0	0.0	0.52826	0.79129	
1228.0	0.0	0.52515	0.78992	
1229.0	0.0	0.53796	0.79321	
1230.0	0.0	0.53503	0.79468	
1231.0	0.0	0.54822	0.79715	
1232.0	0.0	0.54712	0.79523	
1233.0	0.0	0.56396	0.79541	
1234.0	0.0	0.56488	0.79944	
1235.0	0.0	0.58191	0.80072	
1236.0	0.0	0.58301	0.80475	
1237.0	0.0	0.60059	0.80713	
1238.0	0.0	0.60132	0.81482	
1239.0	0.0	0.61816	0.82059	
1240.0	0.0	0.61835	0.81628	
1241.0	0.0	0.63391	0.83221	
1242.0	0.0	0.63281	0.83304	
1243.0	0.0	0.64764	0.84009	
1244.0	0.0	0.64581	0.84119	
1245.0	0.0	0.66101	0.84338	
1246.0	0.0	0.65881	0.84265	
1247.0	0.0	0.6731	0.84576	
1248.0	0.0	0.6709	0.83276	
1249.0	0.0	0.68408	0.84407	
1250.0	0.0	0.67896	0.84137	
1251.0	0.0	0.68994	0.8476	
1252.0	0.0	0.68372	0.8399	
1253.0	0.0	0.69434	0.84814	
1254.0	0.0	0.68774	0.83569	
1255.0	0.0	0.69946	0.8399	
1256.0	0.0	0.69287	0.84338	
1257.0	0.0	0.70386	0.84613	
1258.0	0.0	0.69818	0.84503	
1259.0	0.0	0.71008	0.8454	
1260.0	0.0	0.70569	0.84338	
1261.0	0.0	0.71814	0.84521	
1262.0	0.0	0.71375	0.84357	
1263.0	0.0	0.72693	0.84229	
1264.0	0.0	0.72107	0.84174	
1265.0	0.0	0.73279	0.83643	
1266.0	0.0	0.72528	0.8399	
1267.0	0.0	0.73535	0.84302	
1268.0	0.0	0.72546	0.84174	
1269.0	0.0	0.73389	0.84265	
1270.0	0.0	0.7229	0.83551	
1271.0	0.0	0.72949	0.84045	
1272.0	0.0	0.71741	0.84027	
1273.0	0.0	0.72363	0.84119	
1274.0	0.0	0.71118	0.84009	
1275.0	0.0	0.71741	0.84192	
1276.0	0.0	0.70496	0.83771	
1277.0	0.0	0.71008	0.83752	
1278.0	0.0	0.69727	0.82947	
1279.0	0.0	0.70166	0.83231	
1280.0	0.0	0.68738	0.82635	
1281.0	0.0	0.69141	0.82178	
1282.0	0.0	0.67621	0.81958	
1283.0	0.0	0.67932	0.81592	
1284.0	0.0	0.66431	0.81738	
1285.0	0.0	0.6665	0.8183	
1286.0	0.0	0.65076	0.81372	
1287.0	0.0	0.65332	0.81207	
1288.0	0.0	0.63666	0.81042	
1289.0	0.0	0.63867	0.80786	
1290.0	0.0	0.62366	0.7998	
1291.0	0.0	0.62695	0.80072	
1292.0	0.0	0.61285	0.79541	
1293.0	0.0	0.61597	0.79395	
1294.0	0.0	0.60095	0.7879	
1295.0	0.0	0.60205	0.78644	
1296.0	0.0	0.58557	0.78589	
1297.0	0.0	0.58557	0.78571	
1298.0	0.0	0.56873	0.78168	
1299.0	0.0	0.56854	0.78003	
1300.0	0.0	0.55261	0.77417	
1301.0	0.0	0.55646	0.77563	
1302.0	0.0	0.54492	0.77435	
1303.0	0.0	0.55371	0.77234	
1304.0	0.0	0.54382	0.77051	
1305.0	0.0	0.54932	0.76758	
1306.0	0.0	0.5365	0.76849	
1307.0	0.0	0.54089	0.76685	
1308.0	0.0	0.52789	0.76685	
1309.0	0.0	0.53357	0.76813	
1310.0	0.0	0.52368	0.76501	
1311.0	0.0	0.53284	0.75568	
1312.0	0.0	0.52405	0.75861	
1313.0	0.0	0.53394	0.76611	
1314.0	0.0	0.52588	0.76172	
1315.0	0.0	0.53503	0.75897	
1316.0	0.0	0.52515	0.76135	
1317.0	0.0	0.5332	0.77472	
1318.0	0.0	0.52222	0.77802	
1319.0	0.0	0.53027	0.77692	
1320.0	0.0	0.52002	0.78351	
1321.0	0.0	0.52881	0.78223	
1322.0	0.0	0.51855	0.78076	
1323.0	0.0	0.52808	0.78772	
1324.0	0.0	0.51984	0.78369	
1325.0	0.0	0.52899	0.78259	
1326.0	0.0	0.52002	0.77765	
1327.0	0.0	0.52789	0.776	
1328.0	0.0	0.51636	0.77344	
1329.0	0.0	0.52295	0.76868	
1330.0	0.0	0.51086	0.76648	
1331.0	0.0	0.51709	0.7674	
1332.0	0.0	0.50574	0.75	
1333.0	0.0	0.51233	0.763	
1334.0	0.0	0.50098	0.75604	
1335.0	0.0	0.50775	0.75916	
1336.0	0.0	0.49731	0.74689	
1337.0	0.0	0.50592	0.74304	
1338.0	0.0	0.4964	0.74487	
1339.0	0.0	0.50464	0.74744	
1340.0	0.0	0.49512	0.74341	
1341.0	0.0	0.50262	0.74213	
1342.0	0.0	0.49292	0.7316	
1343.0	0.0	0.49933	0.73389	
1344.0	0.0	0.48816	0.73389	
1345.0	0.0	0.49329	0.73242	
1346.0	0.0	0.48083	0.73132	
1347.0	0.0	0.48633	0.73274	
1348.0	0.0	0.47406	0.72968	
1349.0	0.0	0.47937	0.73059	
1350.0	0.0	0.46655	0.71521	
1351.0	0.0	0.47168	0.72949	
1352.0	0.0	0.45996	0.7262	
1353.0	0.0	0.46509	0.72418	
1354.0	0.0	0.4541	0.72107	
1355.0	0.0	0.46069	0.71704	
1356.0	0.0	0.45007	0.70715	
1357.0	0.0	0.45593	0.7099	
1358.0	0.0	0.44458	0.71045	
1359.0	0.0	0.45117	0.71008	
1360.0	0.0	0.44019	0.70898	
1361.0	0.0	0.44641	0.69727	
1362.0	0.0	0.43579	0.69379	
1363.0	0.0	0.44257	0.70093	
1364.0	0.0	0.4325	0.69727	
1365.0	0.0	0.4411	0.69727	
1366.0	0.0	0.4314	0.69507	
1367.0	0.0	0.43982	0.69031	
1368.0	0.0	0.4292	0.68756	
1369.0	0.0	0.43469	0.67877	
1370.0	0.0	0.42334	0.68701	
1371.0	0.0	0.4281	0.68408	
1372.0	0.0	0.41547	0.68427	
1373.0	0.0	0.42114	0.68353	
1374.0	0.0	0.41089	0.68115	
1375.0	0.0	0.42041	0.67987	
1376.0	0.0	0.41528	0.67969	
1377.0	0.0	0.4292	0.66724	
1378.0	0.0	0.42334	0.67529	
1379.0	0.0	0.4325	0.67603	
1380.0	0.0	0.42389	0.66907	
1381.0	0.0	0.43213	0.672	
1382.0	0.0	0.42444	0.6709	
1383.0	0.0	0.43433	0.67035	
1384.0	0.0	0.4292	0.66852	
1385.0	0.0	0.4411	0.6687	
1386.0	0.0	0.43616	0.6568	
1387.0	0.0	0.44897	0.66815	
1388.0	0.0	0.44385	0.66595	
1389.0	0.0	0.45593	0.67749	
1390.0	0.0	0.45007	0.67676	
1391.0	0.0	0.46069	0.67914	
1392.0	0.0	0.45337	0.68628	
1393.0	0.0	0.46289	0.69397	
1394.0	0.0	0.45593	0.6936	
1395.0	0.0	0.46655	0.68628	
1396.0	0.0	0.45996	0.69287	
1397.0	0.0	0.47058	0.68536	
1398.0	0.0	0.46509	0.69287	
1399.0	0.0	0.47607	0.68573	
1400.0	0.0	0.46875	0.67896	
1401.0	0.0	0.47791	0.68793	
1402.0	0.0	0.46912	0.685	
1403.0	0.0	0.47681	0.68921	
1404.0	0.0	0.46692	0.68628	
1405.0	0.0	0.47461	0.68427	
1406.0	0.0	0.46509	0.67145	
1407.0	0.0	0.47241	0.67804	
1408.0	0.0	0.46216	0.68152	
1409.0	0.0	0.46948	0.67072	
1410.0	0.0	0.45996	0.67822	
1411.0	0.0	0.46783	0.67841	
1412.0	0.0	0.45923	0.66486	
1413.0	0.0	0.46765	0.6709	
1414.0	0.0	0.45941	0.66962	
1415.0	0.0	0.46765	0.6698	
1416.0	0.0	0.45868	0.66669	
1417.0	0.0	0.46619	0.6676	
1418.0	0.0	0.45593	0.66449	
1419.0	0.0	0.46289	0.66595	
1420.0	0.0	0.45154	0.66614	
1421.0	0.0	0.45813	0.66064	
1422.0	0.0	0.44678	0.66541	
1423.0	0.0	0.45337	0.66394	
1424.0	0.0	0.44312	0.66211	
1425.0	0.0	0.45044	0.65405	
1426.0	0.0	0.44275	0.6546	
1427.0	0.0	0.45227	0.65259	
1428.0	0.0	0.4444	0.64783	
1429.0	0.0	0.4541	0.63428	
1430.0	0.0	0.44421	0.63373	
1431.0	0.0	0.45044	0.62421	
1432.0	0.0	0.43835	0.62732	
1433.0	0.0	0.44238	0.62329	
1434.0	0.0	0.42773	0.62137	
1435.0	0.0	0.42865	0.62073	
1436.0	0.0	0.41345	0.61981	
1437.0	0.0	0.41345	0.61597	
1438.0	0.0	0.39679	0.63116	
1439.0	0.0	0.39716	0.63574	
1440.0	0.0	0.38031	0.64819	
1441.0	0.0	0.3783	0.65808	
1442.0	0.0	0.35925	0.6601	
1443.0	0.0	0.35577	0.66669	
1444.0	0.0	0.33582	0.66724	
1445.0	0.0	0.3316	0.66724	
1446.0	0.0	0.31384	0.65607	
1447.0	0.0	0.31421	0.66138	
1448.0	0.0	0.30139	0.65625	
1449.0	0.0	0.30945	0.64691	
1450.0	0.0	0.30286	0.63428	
1451.0	0.0	0.31604	0.62659	
1452.0	0.0	0.31348	0.60883	
1453.0	0.0	0.33069	0.59637	
1454.0	0.0	0.33234	0.57495	
1455.0	0.0	0.35522	0.56525	
1456.0	0.0	0.36438	0.54767	
1457.0	0.0	0.39185	0.52972	
1458.0	0.0	0.40283	0.51929	
1459.0	0.0	0.4292	0.51288	
1460.0	0.0	0.43945	0.51215	
1461.0	0.0	0.46619	0.51196	
1462.0	0.0	0.47571	0.5354	
1463.0	0.0	0.49988	0.55719	
1464.0	0.0	0.50757	0.57935	
1465.0	0.0	0.52734	0.60535	
1466.0	0.0	0.52991	0.62549	
1467.0	0.0	0.54639	0.64984	
1468.0	0.0	0.54456	0.6665	
1469.0	0.0	0.55774	0.68225	
1470.0	0.0	0.55371	0.68884	
1471.0	0.0	0.56506	0.70697	
1472.0	0.0	0.55811	0.71558	
1473.0	0.0	0.56653	0.73334	
1474.0	0.0	0.55811	0.74341	
1475.0	0.0	0.56653	0.75366	
1476.0	0.0	0.55701	0.75568	
1477.0	0.0	0.56561	0.76776	
1478.0	0.0	0.55884	0.76831	
1479.0	0.0	0.56982	0.78186	
1480.0	0.0	0.56543	0.79321	
1481.0	0.0	0.57898	0.81738	
1482.0	0.0	0.57788	0.83459	
1483.0	0.0	0.59509	0.84705	
1484.0	0.0	0.59583	0.85822	
1485.0	0.0	0.6123	0.87524	
1486.0	0.0	0.6123	0.88184	
1487.0	0.0	0.62787	0.88678	
1488.0	0.0	0.62585	0.88916	
1489.0	0.0	0.63611	0.89978	
1490.0	0.0	0.62549	0.90582	
1491.0	0.0	0.62769	0.91727	
1492.0	0.0	0.61157	0.91187	
1493.0	0.0	0.6134	0.93777	
1494.0	0.0	0.60022	0.94006	
1495.0	0.0	0.60278	0.97119	
1496.0	0.0	0.5874	0.98346	
1497.0	0.0	0.58704	0.99536	
1498.0	0.0	0.57056	1.00813	
1499.0	0.0	0.56982	1.02026	
1500.0	0.0	0.55298	1.02319	
1501.0	0.0	0.55225	1.02759	
1502.0	0.0	0.53467	1.02704	
1503.0	0.0	0.5321	1.02832	
1504.0	0.0	0.51288	1.02832	
1505.0	0.0	0.5083	1.02209	
1506.0	0.0	0.48889	1.00177	
1507.0	0.0	0.4856	1.00813	
1508.0	0.0	0.46729	0.99738	
1509.0	0.0	0.46637	0.98309	
1510.0	0.0	0.44824	0.96661	
1511.0	0.0	0.44604	0.94556	
1512.0	0.0	0.42865	0.94281	
1513.0	0.0	0.42773	0.93347	
1514.0	0.0	0.40979	0.92688	
1515.0	0.0	0.40723	0.90857	
1516.0	0.0	0.38965	0.92651	
1517.0	0.0	0.38928	0.92047	
1518.0	0.0	0.37445	0.92542	
1519.0	0.0	0.37811	0.91553	
1520.0	0.0	0.36731	0.93018	
1521.0	0.0	0.37152	0.93622	
1522.0	0.0	0.35962	0.93182	
1523.0	0.0	0.36438	0.93549	
1524.0	0.0	0.35468	0.93018	
1525.0	0.0	0.36255	0.93036	
1526.0	0.0	0.35596	0.93842	
1527.0	0.0	0.36713	0.92853	
1528.0	0.0	0.36292	0.94354	
1529.0	0.0	0.3761	0.95361	
1530.0	0.0	0.37207	0.95215	
1531.0	0.0	0.38489	0.95746	
1532.0	0.0	0.38086	0.96094	
1533.0	0.0	0.39258	0.96497	
1534.0	0.0	0.38708	0.96313	
1535.0	0.0	0.39844	0.97046	
1536.0	0.0	0.39258	0.97046	
1537.0	0.0	0.4032	0.96936	
1538.0	0.0	0.39844	0.97266	
1539.0	0.0	0.40979	0.97302	
1540.0	0.0	0.4043	0.96698	
1541.0	0.0	0.41547	0.97687	
1542.0	0.0	0.41016	0.97321	
1543.0	0.0	0.42004	0.97614	
1544.0	0.0	0.41199	0.97522	
1545.0	0.0	0.42188	0.97595	
1546.0	0.0	0.41382	0.97192	
1547.0	0.0	0.42407	0.97083	
1548.0	0.0	0.41785	0.96899	
1549.0	0.0	0.42883	0.97101	
1550.0	0.0	0.42371	0.96735	
1551.0	0.0	0.43378	0.97266	
1552.0	0.0	0.42773	0.97211	
1553.0	0.0	0.43835	0.96625	
1554.0	0.0	0.43359	0.96313	
1555.0	0.0	0.44421	0.96423	
1556.0	0.0	0.43872	0.95728	
1557.0	0.0	0.44952	0.9516	
1558.0	0.0	0.44348	0.94318	
1559.0	0.0	0.45245	0.94666	
1560.0	0.0	0.44458	0.93768	
1561.0	0.0	0.45227	0.94043	
1562.0	0.0	0.44238	0.93658	
1563.0	0.0	0.44714	0.93274	
1564.0	0.0	0.43469	0.92175	
1565.0	0.0	0.43652	0.90894	
1566.0	0.0	0.42261	0.90015	
1567.0	0.0	0.42535	0.90747	
1568.0	0.0	0.41235	0.9071	
1569.0	0.0	0.41455	0.90417	
1570.0	0.0	0.40137	0.89575	
1571.0	0.0	0.4043	0.89667	
1572.0	0.0	0.39276	0.88751	
1573.0	0.0	0.39624	0.88715	
1574.0	0.0	0.38379	0.86664	
1575.0	0.0	0.38818	0.86719	
1576.0	0.0	0.37573	0.87231	
1577.0	0.0	0.37866	0.86646	
1578.0	0.0	0.36548	0.85913	
1579.0	0.0	0.36877	0.85364	
1580.0	0.0	0.35669	0.83231	
1581.0	0.0	0.36108	0.8335	
1582.0	0.0	0.35028	0.82104	
1583.0	0.0	0.35449	0.80969	
1584.0	0.0	0.34277	0.79449	
1585.0	0.0	0.34717	0.78754	
1586.0	0.0	0.33691	0.78021	
1587.0	0.0	0.34222	0.77216	
1588.0	0.0	0.33435	0.76172	
1589.0	0.0	0.34387	0.76721	
1590.0	0.0	0.33948	0.76337	
1591.0	0.0	0.35339	0.74854	
1592.0	0.0	0.35083	0.76135	
1593.0	0.0	0.36292	0.76025	
1594.0	0.0	0.35962	0.75348	
1595.0	0.0	0.3717	0.75403	
1596.0	0.0	0.36932	0.75513	
1597.0	0.0	0.38562	0.7467	
1598.0	0.0	0.38654	0.75092	
1599.0	0.0	0.40393	0.76428	
1600.0	0.0	0.4054	0.76593	
1601.0	0.0	0.42151	0.77271	
1602.0	0.0	0.42041	0.77637	
1603.0	0.0	0.4325	0.78461	
1604.0	0.0	0.427	0.78278	
1605.0	0.0	0.43652	0.7923	
1606.0	0.0	0.42883	0.79578	
1607.0	0.0	0.43579	0.79633	
1608.0	0.0	0.42664	0.80237	
1609.0	0.0	0.4325	0.80237	
1610.0	0.0	0.42242	0.80804	
1611.0	0.0	0.42792	0.8053	
1612.0	0.0	0.41638	0.80438	
1613.0	0.0	0.41931	0.80676	
1614.0	0.0	0.40521	0.7998	
1615.0	0.0	0.4054	0.80292	
1616.0	0.0	0.38928	0.7998	
1617.0	0.0	0.38782	0.78918	
1618.0	0.0	0.37079	0.7912	
1619.0	0.0	0.36896	0.78882	
1620.0	0.0	0.3501	0.78204	
1621.0	0.0	0.3457	0.7749	
1622.0	0.0	0.3252	0.75238	
1623.0	0.0	0.31934	0.75897	
1624.0	0.0	0.2981	0.74945	
1625.0	0.0	0.28931	0.72308	
1626.0	0.0	0.2644	0.72162	
1627.0	0.0	0.25269	0.71484	
1628.0	0.0	0.22742	0.69946	
1629.0	0.0	0.21497	0.68335	
1630.0	0.0	0.1864	0.66797	
1631.0	0.0	0.17065	0.64801	
1632.0	0.0	0.13916	0.61981	
1633.0	0.0	0.11902	0.60132	
1634.0	0.0	0.08405	0.57239	
1635.0	0.0	0.06299	0.54236	
1636.0	0.0	0.02802	0.5105	
1637.0	0.0	0.00549	0.48193	
1638.0	0.0	-0.03058	0.43982	
1639.0	0.0	-0.05383	0.41528	
1640.0	0.0	-0.08954	0.37848	
1641.0	0.0	-0.11206	0.33765	
1642.0	0.0	-0.14648	0.30432	
1643.0	0.0	-0.16754	0.27283	
1644.0	0.0	-0.20142	0.24445	
1645.0	0.0	-0.22211	0.21844	
1646.0	0.0	-0.25525	0.18896	
1647.0	0.0	-0.27539	0.16077	
1648.0	0.0	-0.30707	0.13513	
1649.0	0.0	-0.32538	0.10016	
1650.0	0.0	-0.35541	0.08258	
1651.0	0.0	-0.37189	0.06262	
1652.0	0.0	-0.40027	0.02618	
1653.0	0.0	-0.4151	0.00476	
1654.0	0.0	-0.44193	-0.00494	
1655.0	0.0	-0.45667	-0.02545	
1656.0	0.0	-0.48358	-0.04468	
1657.0	0.0	-0.49731	-0.07141	
1658.0	0.0	-0.52332	-0.07755	
1659.0	0.0	-0.53613	-0.09412	
1660.0	0.0	-0.56067	-0.11902	
1661.0	0.0	-0.56909	-0.1225	
1662.0	0.0	-0.58887	-0.13733	
1663.0	0.0	-0.59216	-0.15344	
1664.0	0.0	-0.60864	-0.15326	
1665.0	0.0	-0.61267	-0.16809	
1666.0	0.0	-0.63007	-0.16498	
1667.0	0.0	-0.63281	-0.16589	
1668.0	0.0	-0.64764	-0.17908	
1669.0	0.0	-0.64764	-0.16699	
1670.0	0.0	-0.65863	-0.17322	
1671.0	0.0	-0.65405	-0.16937	
1672.0	0.0	-0.66284	-0.16937	
1673.0	0.0	-0.65515	-0.16374	
1674.0	0.0	-0.66248	-0.1604	
1675.0	0.0	-0.65387	-0.15326	
1676.0	0.0	-0.66083	-0.15088	
1677.0	0.0	-0.65149	-0.13623	
1678.0	0.0	-0.65799	-0.12689	
1679.0	0.0	-0.64801	-0.12177	
1680.0	0.0	-0.65442	-0.11169	
1681.0	0.0	-0.64343	-0.11719	
1682.0	0.0	-0.64893	-0.10089	
1683.0	0.0	-0.63684	-0.10291	
1684.0	0.0	-0.63995	-0.10126	
1685.0	0.0	-0.62604	-0.08514	
1686.0	0.0	-0.62988	-0.07617	
1687.0	0.0	-0.61743	-0.06885	
1688.0	0.0	-0.62109	-0.06848	
1689.0	0.0	-0.6091	-0.0553	
1690.0	0.0	-0.61267	-0.05859	
1691.0	0.0	-0.59985	-0.05328	
1692.0	0.0	-0.60297	-0.04523	
1693.0	0.0	-0.58942	-0.03809	
1694.0	0.0	-0.59143	-0.02893	
1695.0	0.0	-0.5766	-0.01337	
1696.0	0.0	-0.57642	-0.01144	
1697.0	0.0	-0.56012	-0.00568	
1698.0	0.0	-0.55865	0.00201	
1699.0	0.0	-0.54163	0.01886	
1700.0	0.0	-0.53979	0.0174	
1701.0	0.0	-0.52295	0.03717	
1702.0	0.0	-0.52148	0.03973	
1703.0	0.0	-0.50574	0.05731	
1704.0	0.0	-0.50482	0.05273	
1705.0	0.0	-0.48944	0.07507	
1706.0	0.0	-0.48871	0.07983	
1707.0	0.0	-0.47241	0.09302	
1708.0	0.0	-0.47058	0.10913	
1709.0	0.0	-0.4541	0.11609	
1710.0	0.0	-0.45117	0.12708	
1711.0	0.0	-0.43378	0.13	
1712.0	0.0	-0.43176	0.13934	
1713.0	0.0	-0.4151	0.1377	
1714.0	0.0	-0.41309	0.15875	
1715.0	0.0	-0.39697	0.16882	
1716.0	0.0	-0.39569	0.16754	
1717.0	0.0	-0.37976	0.18091	
1718.0	0.0	-0.37921	0.18896	
1719.0	0.0	-0.3642	0.19336	
1720.0	0.0	-0.36511	0.19794	
1721.0	0.0	-0.35193	0.21552	
1722.0	0.0	-0.35284	0.22028	
1723.0	0.0	-0.33911	0.23547	
1724.0	0.0	-0.34058	0.23914	
1725.0	0.0	-0.32684	0.23456	
1726.0	0.0	-0.32996	0.26074	
1727.0	0.0	-0.31915	0.26898	
1728.0	0.0	-0.32446	0.27814	
1729.0	0.0	-0.31476	0.28784	
1730.0	0.0	-0.32062	0.29279	
1731.0	0.0	-0.31146	0.29828	
1732.0	0.0	-0.31531	0.30396	
1733.0	0.0	-0.30212	0.31348	
1734.0	0.0	-0.30084	0.31934	
1735.0	0.0	-0.28345	0.31952	
1736.0	0.0	-0.28271	0.3219	
1737.0	0.0	-0.26843	0.32098	
1738.0	0.0	-0.26953	0.32254	
1739.0	0.0	-0.25543	0.33234	
1740.0	0.0	-0.25616	0.33289	
1741.0	0.0	-0.2417	0.33655	
1742.0	0.0	-0.24115	0.33527	
1743.0	0.0	-0.22522	0.3252	
1744.0	0.0	-0.22504	0.34131	
1745.0	0.0	-0.21149	0.34662	
1746.0	0.0	-0.21387	0.34515	
1747.0	0.0	-0.20343	0.36237	
1748.0	0.0	-0.20837	0.35852	
1749.0	0.0	-0.19995	0.36877	
1750.0	0.0	-0.20746	0.38086	
1751.0	0.0	-0.19995	0.39111	
1752.0	0.0	-0.20709	0.39871	
1753.0	0.0	-0.19958	0.41418	
1754.0	0.0	-0.20673	0.4173	
1755.0	0.0	-0.19812	0.43011	
1756.0	0.0	-0.2049	0.43872	
1757.0	0.0	-0.19666	0.4433	
1758.0	0.0	-0.20453	0.46124	
1759.0	0.0	-0.19849	0.46902	
1760.0	0.0	-0.20654	0.47168	
1761.0	0.0	-0.19556	0.466	
1762.0	0.0	-0.19263	0.4552	
1763.0	0.0	-0.16809	0.44348	
1764.0	0.0	-0.14941	0.4222	
1765.0	0.0	-0.11115	0.42279	
1766.0	0.0	-0.08258	0.40192	
1767.0	0.0	-0.04248	0.39386	
1768.0	0.0	-0.01886	0.39954	
1769.0	0.0	0.01208	0.4021	
1770.0	0.0	0.02673	0.427	
1771.0	0.0	0.05292	0.44055	
1772.0	0.0	0.06812	0.47534	
1773.0	0.0	0.09558	0.49036	
1774.0	0.0	0.10767	0.4942	
1775.0	0.0	0.12891	0.4845	
1776.0	0.0	0.1333	0.45154	
1777.0	0.0	0.14594	0.42792	
1778.0	0.0	0.14062	0.38635	
1779.0	0.0	0.1441	0.34314	
1780.0	0.0	0.12872	0.29993	
1781.0	0.0	0.12323	0.26807	
1782.0	0.0	0.09998	0.23273	
1783.0	0.0	0.09009	0.21126	
1784.0	0.0	0.06592	0.20251	
1785.0	0.0	0.05713	0.18782	
1786.0	0.0	0.03406	0.17139	
1787.0	0.0	0.02802	0.1582	
1788.0	0.0	0.00916	0.14795	
1789.0	0.0	0.00696	0.13696	
1790.0	0.0	-0.00769	0.11737	
1791.0	0.0	-0.00403	0.10968	
1792.0	0.0	-0.01373	0.09668	
1793.0	0.0	-0.00476	0.09814	
1794.0	0.0	-0.01099	0.09338	
1795.0	0.0	0.00192	0.10291	
1796.0	0.0	0.00146	0.11078	
1797.0	0.0	0.01886	0.12726	
1798.0	0.0	0.02179	0.14154	
1799.0	0.0	0.03882	0.1626	
1800.0	0.0	0.04028	0.19409	
1801.0	0.0	0.0564	0.22156	
1802.0	0.0	0.0553	0.24536	
1803.0	0.0	0.06885	0.26981	
1804.0	0.0	0.06738	0.2937	
1805.0	0.0	0.08203	0.30615	
1806.0	0.0	0.08221	0.32776	
1807.0	0.0	0.09814	0.3479	
1808.0	0.0	0.09814	0.375	
1809.0	0.0	0.11096	0.38782	
1810.0	0.0	0.10785	0.40723	
1811.0	0.0	0.12012	0.41885	
1812.0	0.0	0.11755	0.44659	
1813.0	0.0	0.13037	0.46252	
1814.0	0.0	0.12781	0.48157	
1815.0	0.0	0.14062	0.49603	
1816.0	0.0	0.1377	0.50272	
1817.0	0.0	0.14905	0.53119	
1818.0	0.0	0.14392	0.53925	
1819.0	0.0	0.15381	0.55847	
1820.0	0.0	0.14594	0.5744	
1821.0	0.0	0.15381	0.58942	
1822.0	0.0	0.1452	0.59949	
1823.0	0.0	0.15308	0.60965	
1824.0	0.0	0.14374	0.61194	
1825.0	0.0	0.15125	0.62732	
1826.0	0.0	0.14355	0.63043	
1827.0	0.0	0.15161	0.63776	
1828.0	0.0	0.14502	0.64014	
1829.0	0.0	0.15308	0.63959	
1830.0	0.0	0.1452	0.6438	
1831.0	0.0	0.15161	0.65259	
1832.0	0.0	0.14172	0.65607	
1833.0	0.0	0.14648	0.65771	
1834.0	0.0	0.13477	0.65991	
1835.0	0.0	0.13953	0.66064	
1836.0	0.0	0.12909	0.65369	
1837.0	0.0	0.13477	0.65771	
1838.0	0.0	0.12433	0.65515	
1839.0	0.0	0.13074	0.65149	
1840.0	0.0	0.12341	0.64911	
1841.0	0.0	0.13239	0.64691	
1842.0	0.0	0.12598	0.64142	
1843.0	0.0	0.1366	0.63666	
1844.0	0.0	0.13184	0.62073	
1845.0	0.0	0.14319	0.63098	
1846.0	0.0	0.13879	0.62787	
1847.0	0.0	0.14941	0.61963	
1848.0	0.0	0.14465	0.62274	
1849.0	0.0	0.15527	0.62219	
1850.0	0.0	0.15088	0.61377	
1851.0	0.0	0.16168	0.60919	
1852.0	0.0	0.1571	0.6015	
1853.0	0.0	0.16846	0.6167	
1854.0	0.0	0.16479	0.61359	
1855.0	0.0	0.17615	0.60168	
1856.0	0.0	0.17303	0.60461	
1857.0	0.0	0.18439	0.59894	
1858.0	0.0	0.18164	0.60956	
1859.0	0.0	0.19336	0.61121	
1860.0	0.0	0.1897	0.60718	
1861.0	0.0	0.2016	0.60571	
1862.0	0.0	0.19702	0.5885	
1863.0	0.0	0.20746	0.59784	
1864.0	0.0	0.20251	0.59967	
1865.0	0.0	0.21313	0.5918	
1866.0	0.0	0.20801	0.59033	
1867.0	0.0	0.21808	0.59418	
1868.0	0.0	0.21313	0.58759	
1869.0	0.0	0.22284	0.58942	
1870.0	0.0	0.21643	0.58484	
1871.0	0.0	0.22449	0.58356	
1872.0	0.0	0.2146	0.56506	
1873.0	0.0	0.21973	0.57129	
1874.0	0.0	0.20618	0.56543	
1875.0	0.0	0.20911	0.56049	
1876.0	0.0	0.19482	0.55444	
1877.0	0.0	0.19922	0.55005	
1878.0	0.0	0.1886	0.53668	
1879.0	0.0	0.19629	0.52991	
1880.0	0.0	0.1853	0.51398	
1881.0	0.0	0.1875	0.50903	
1882.0	0.0	0.1701	0.49127	
1883.0	0.0	0.16846	0.48193	
1884.0	0.0	0.14941	0.46436	
1885.0	0.0	0.14795	0.44275	
1886.0	0.0	0.13147	0.42371	
1887.0	0.0	0.1322	0.40759	
1888.0	0.0	0.11719	0.37445	
1889.0	0.0	0.11865	0.35468	
1890.0	0.0	0.10254	0.323	
1891.0	0.0	0.10181	0.31311	
1892.0	0.0	0.0835	0.29022	
1893.0	0.0	0.07983	0.27493	
1894.0	0.0	0.05823	0.25397	
1895.0	0.0	0.05109	0.24353	
1896.0	0.0	0.02765	0.23016	
1897.0	0.0	0.0206	0.21094	
1898.0	0.0	-0.0011	0.20288	
1899.0	0.0	-0.00659	0.19226	
1900.0	0.0	-0.02765	0.17798	
1901.0	0.0	-0.03259	0.16315	
1902.0	0.0	-0.05438	0.14777	
1903.0	0.0	-0.06171	0.12726	
1904.0	0.0	-0.08496	0.10327	
1905.0	0.0	-0.09283	0.09064	
1906.0	0.0	-0.11609	0.07745	
1907.0	0.0	-0.12524	0.05164	
1908.0	0.0	-0.14868	0.03442	
1909.0	0.0	-0.15692	0.02014	
1910.0	0.0	-0.18018	-0.00366	
1911.0	0.0	-0.18732	-0.01181	
1912.0	0.0	-0.20856	-0.02948	
1913.0	0.0	-0.21423	-0.0434	
1914.0	0.0	-0.23428	-0.06152	
1915.0	0.0	-0.23804	-0.07709	
1916.0	0.0	-0.25745	-0.08386	
1917.0	0.0	-0.26111	-0.09265	
1918.0	0.0	-0.28052	-0.10767	
1919.0	0.0	-0.28418	-0.11371	
1920.0	0.0	-0.30322	-0.1311	
1921.0	0.0	-0.30707	-0.14191	
1922.0	0.0	-0.32629	-0.15363	
1923.0	0.0	-0.32941	-0.16132	
1924.0	0.0	-0.3479	-0.16965	
1925.0	0.0	-0.35028	-0.17432	
1926.0	0.0	-0.36768	-0.17944	
1927.0	0.0	-0.36859	-0.17413	
1928.0	0.0	-0.38416	-0.17725	
1929.0	0.0	-0.38324	-0.18439	
1930.0	0.0	-0.39807	-0.17743	
1931.0	0.0	-0.39569	-0.18045	
1932.0	0.0	-0.40906	-0.17084	
1933.0	0.0	-0.40594	-0.17139	
1934.0	0.0	-0.41821	-0.16617	
1935.0	0.0	-0.41492	-0.1582	
1936.0	0.0	-0.42682	-0.16406	
1937.0	0.0	-0.42151	-0.14978	
1938.0	0.0	-0.43213	-0.15106	
1939.0	0.0	-0.42627	-0.14172	
1940.0	0.0	-0.43579	-0.14008	
1941.0	0.0	-0.42847	-0.13385	
1942.0	0.0	-0.43799	-0.1387	
1943.0	0.0	-0.4314	-0.12524	
1944.0	0.0	-0.44202	-0.12762	
1945.0	0.0	-0.43607	-0.12103	
1946.0	0.0	-0.44604	-0.11646	
1947.0	0.0	-0.43909	-0.10107	
1948.0	0.0	-0.44788	-0.104	
1949.0	0.0	-0.43799	-0.09265	
1950.0	0.0	-0.44202	-0.08624	
1951.0	0.0	-0.42645	-0.06702	
1952.0	0.0	-0.42755	-0.05603	
1953.0	0.0	-0.41345	-0.05374	
1954.0	0.0	-0.41748	-0.03461	
1955.0	0.0	-0.4043	-0.03021	
1956.0	0.0	-0.40759	-0.01245	
1957.0	0.0	-0.39386	0.0011	
1958.0	0.0	-0.39569	0.00201	
1959.0	0.0	-0.38068	0.01025	
1960.0	0.0	-0.38031	0.02802	
1961.0	0.0	-0.36456	0.03278	
1962.0	0.0	-0.36401	0.03845	
1963.0	0.0	-0.34863	0.05457	
1964.0	0.0	-0.349	0.0509	
1965.0	0.0	-0.33362	0.06885	
1966.0	0.0	-0.33508	0.07141	
1967.0	0.0	-0.32153	0.06775	
1968.0	0.0	-0.32336	0.06226	
1969.0	0.0	-0.31036	0.065	
1970.0	0.0	-0.31128	0.06702	
1971.0	0.0	-0.29736	0.05383	
1972.0	0.0	-0.29681	0.04907	
1973.0	0.0	-0.28088	0.04248	
1974.0	0.0	-0.28088	0.02875	
1975.0	0.0	-0.26733	0.02527	
1976.0	0.0	-0.26843	0.02472	
1977.0	0.0	-0.25525	0.02325	
1978.0	0.0	-0.25745	0.00732	
1979.0	0.0	-0.24353	-0.00183	
1980.0	0.0	-0.24646	-0.01849	
1981.0	0.0	-0.23657	-0.026	
1982.0	0.0	-0.24554	-0.03497	
1983.0	0.0	-0.24042	-0.04541	
1984.0	0.0	-0.25214	-0.05914	
1985.0	0.0	-0.24921	-0.07178	
1986.0	0.0	-0.26294	-0.08789	
1987.0	0.0	-0.26129	-0.09412	
1988.0	0.0	-0.27539	-0.11298	
1989.0	0.0	-0.27246	-0.12305	
1990.0	0.0	-0.28583	-0.14813	
1991.0	0.0	-0.2818	-0.16626	
1992.0	0.0	-0.29425	-0.18896	
1993.0	0.0	-0.29022	-0.20856	
1994.0	0.0	-0.30359	-0.22302	
1995.0	0.0	-0.30066	-0.24902	
1996.0	0.0	-0.31494	-0.26733	
1997.0	0.0	-0.31219	-0.28271	
1998.0	0.0	-0.32465	-0.31165	
1999.0	0.0	-0.32007	-0.3338	
2000.0	0.0	-0.33215	-0.36053	
2001.0	0.0	-0.32758	-0.39166	
2002.0	0.0	-0.34039	-0.41528	
2003.0	0.0	-0.33636	-0.44	
2004.0	0.0	-0.35101	-0.46463	
2005.0	0.0	-0.34973	-0.48468	
2006.0	0.0	-0.36731	-0.50647	
2007.0	0.0	-0.36969	-0.52455	
2008.0	0.0	-0.38947	-0.54364	
2009.0	0.0	-0.39276	-0.55911	
2010.0	0.0	-0.41382	-0.57898	
2011.0	0.0	-0.42004	-0.59436	
2012.0	0.0	-0.44385	-0.61121	
2013.0	0.0	-0.45264	-0.62439	
2014.0	0.0	-0.479	-0.64105	
2015.0	0.0	-0.48999	-0.65405	
2016.0	0.0	-0.51837	-0.67044	
2017.0	0.0	-0.53339	-0.68408	
2018.0	0.0	-0.56387	-0.69873	
2019.0	0.0	-0.58136	-0.71027	
2020.0	0.0	-0.61432	-0.7234	
2021.0	0.0	-0.63464	-0.73242	
2022.0	0.0	-0.67181	-0.74139	
2023.0	0.0	-0.6969	-0.74373	
2024.0	0.0	-0.73746	-0.74854	
2025.0	0.0	-0.76666	-0.7565	
2026.0	0.0	-0.80823	-0.76859	
2027.0	0.0	-0.8373	-0.77655	
2028.0	0.0	-0.87469	-0.79321	
2029.0	0.0	-0.90033	-0.80429	
2030.0	0.0	-0.93402	-0.81207	
2031.0	0.0	-0.9554	-0.82361	
2032.0	0.0	-0.98671	-0.83405	
2033.0	0.0	-1.00507	-0.84064	
2034.0	0.0	-1.03299	-0.84979	
2035.0	0.0	-1.0491	-0.85542	
2036.0	0.0	-1.0751	-0.86618	
2037.0	0.0	-1.08893	-0.86421	
2038.0	0.0	-1.11182	-0.86787	
2039.0	0.0	-1.12335	-0.86755	
2040.0	0.0	-1.14528	-0.87268	
2041.0	0.0	-1.15448	-0.87598	
2042.0	0.0	-1.17426	-0.87982	
2043.0	0.0	-1.18039	-0.89099	
2044.0	0.0	-1.19943	-0.88806	
2045.0	0.0	-1.2041	-0.88715	
2046.0	0.0	-1.2215	-0.89163	
2047.0	0.0	-1.2247	-0.88989	
2048.0	0.0	-1.24086	-0.89127	
2049.0	0.0	-1.24173	-0.88394	
2050.0	0.0	-1.25729	-0.88861	
2051.0	0.0	-1.25629	-0.8844	
2052.0	0.0	-1.27084	-0.87451	
2053.0	0.0	-1.26901	-0.87277	
2054.0	0.0	-1.28329	-0.87213	
2055.0	0.0	-1.28009	-0.86554	
2056.0	0.0	-1.29341	-0.87231	
2057.0	0.0	-1.28888	-0.86298	
2058.0	0.0	-1.30188	-0.86884	
2059.0	0.0	-1.29762	-0.86664	
2060.0	0.0	-1.31012	-0.86884	
2061.0	0.0	-1.3049	-0.85327	
2062.0	0.0	-1.31671	-0.86055	
2063.0	0.0	-1.31049	-0.85748	
2064.0	0.0	-1.32211	-0.85126	
2065.0	0.0	-1.31516	-0.84869	
2066.0	0.0	-1.32619	-0.84956	
2067.0	0.0	-1.31799	-0.8465	
2068.0	0.0	-1.32742	-0.85217	
2069.0	0.0	-1.31923	-0.8443	
2070.0	0.0	-1.32898	-0.85217	
2071.0	0.0	-1.32161	-0.84425	
2072.0	0.0	-1.33209	-0.83514	
2073.0	0.0	-1.32468	-0.83917	
2074.0	0.0	-1.33502	-0.83881	
2075.0	0.0	-1.32834	-0.8291	
2076.0	0.0	-1.33859	-0.82288	
2077.0	0.0	-1.33246	-0.80127	
2078.0	0.0	-1.34271	-0.8031	
2079.0	0.0	-1.33502	-0.78955	
2080.0	0.0	-1.34427	-0.79596	
2081.0	0.0	-1.33575	-0.78452	
2082.0	0.0	-1.345	-0.77719	
2083.0	0.0	-1.33594	-0.77417	
2084.0	0.0	-1.3439	-0.77966	
2085.0	0.0	-1.33324	-0.77618	
2086.0	0.0	-1.33896	-0.7641	
2087.0	0.0	-1.32623	-0.76904	
2088.0	0.0	-1.33145	-0.7641	
2089.0	0.0	-1.32074	-0.75174	
2090.0	0.0	-1.32825	-0.74304	
2091.0	0.0	-1.31854	-0.74835	
2092.0	0.0	-1.32495	-0.7359	
2093.0	0.0	-1.31374	-0.73288	
2094.0	0.0	-1.31868	-0.7326	
2095.0	0.0	-1.3055	-0.72652	
2096.0	0.0	-1.30847	-0.7251	
2097.0	0.0	-1.29341	-0.72949	
2098.0	0.0	-1.29414	-0.71393	
2099.0	0.0	-1.27675	-0.72363	
2100.0	0.0	-1.27606	-0.71704	
2101.0	0.0	-1.25963	-0.71631	
2102.0	0.0	-1.26132	-0.71631	
2103.0	0.0	-1.24786	-0.73224	
2104.0	0.0	-1.2518	-0.73901	
2105.0	0.0	-1.24127	-0.73865	
2106.0	0.0	-1.24883	-0.74854	
2107.0	0.0	-1.24013	-0.7478	
2108.0	0.0	-1.24782	-0.74867	
2109.0	0.0	-1.23807	-0.75101	
2110.0	0.0	-1.24493	-0.75275	
2111.0	0.0	-1.23454	-0.75989	
2112.0	0.0	-1.24072	-0.77051	
2113.0	0.0	-1.23047	-0.77014	
2114.0	0.0	-1.2377	-0.77399	
2115.0	0.0	-1.22928	-0.77435	
2116.0	0.0	-1.23697	-0.7646	
2117.0	0.0	-1.22781	-0.76703	
2118.0	0.0	-1.23468	-0.76483	
2119.0	0.0	-1.22507	-0.74812	
2120.0	0.0	-1.23294	-0.75238	
2121.0	0.0	-1.22498	-0.73553	
2122.0	0.0	-1.2356	-0.73975	
2123.0	0.0	-1.23065	-0.7337	
2124.0	0.0	-1.24109	-0.72464	
2125.0	0.0	-1.23376	-0.70258	
2126.0	0.0	-1.24319	-0.69086	
2127.0	0.0	-1.23541	-0.68143	
2128.0	0.0	-1.24493	-0.66504	
2129.0	0.0	-1.23688	-0.65698	
2130.0	0.0	-1.24507	-0.65387	
2131.0	0.0	-1.23436	-0.63849	
2132.0	0.0	-1.24013	-0.63428	
2133.0	0.0	-1.22644	-0.61176	
2134.0	0.0	-1.22891	-0.6048	
2135.0	0.0	-1.21436	-0.59033	
2136.0	0.0	-1.21756	-0.57367	
2137.0	0.0	-1.20264	-0.56268	
2138.0	0.0	-1.20538	-0.55692	
2139.0	0.0	-1.19312	-0.54785	
2140.0	0.0	-1.19911	-0.53943	
2141.0	0.0	-1.18982	-0.51837	
2142.0	0.0	-1.19925	-0.51013	
2143.0	0.0	-1.1922	-0.5094	
2144.0	0.0	-1.20291	-0.50134	
2145.0	0.0	-1.19806	-0.48633	
2146.0	0.0	-1.21078	-0.48285	
2147.0	0.0	-1.20721	-0.46426	
2148.0	0.0	-1.21967	-0.47351	
2149.0	0.0	-1.21509	-0.4541	
2150.0	0.0	-1.22639	-0.4563	
2151.0	0.0	-1.22131	-0.43561	
2152.0	0.0	-1.23422	-0.43213	
2153.0	0.0	-1.23074	-0.43396	
2154.0	0.0	-1.24374	-0.4173	
2155.0	0.0	-1.23775	-0.4043	
2156.0	0.0	-1.24681	-0.39496	
2157.0	0.0	-1.23761	-0.39423	
2158.0	0.0	-1.24507	-0.39001	
2159.0	0.0	-1.23285	-0.37683	
2160.0	0.0	-1.23509	-0.37097	
2161.0	0.0	-1.2187	-0.35449	
2162.0	0.0	-1.21811	-0.35651	
2163.0	0.0	-1.19861	-0.33032	
2164.0	0.0	-1.19458	-0.32886	
2165.0	0.0	-1.17188	-0.31769	
2166.0	0.0	-1.16528	-0.29755	
2167.0	0.0	-1.14111	-0.28162	
2168.0	0.0	-1.1321	-0.27136	
2169.0	0.0	-1.10774	-0.25525	
2170.0	0.0	-1.09863	-0.24518	
2171.0	0.0	-1.07538	-0.21753	
2172.0	0.0	-1.0675	-0.21753	
2173.0	0.0	-1.04462	-0.1897	
2174.0	0.0	-1.03693	-0.18622	
2175.0	0.0	-1.01569	-0.17725	
2176.0	0.0	-1.01111	-0.16919	
2177.0	0.0	-0.99133	-0.16864	
2178.0	0.0	-0.98758	-0.16864	
2179.0	0.0	-0.96936	-0.15656	
2180.0	0.0	-0.96808	-0.15454	
2181.0	0.0	-0.95078	-0.14099	
2182.0	0.0	-0.9516	-0.14099	
2183.0	0.0	-0.9386	-0.12451	
2184.0	0.0	-0.94482	-0.12543	
2185.0	0.0	-0.93805	-0.11691	
2186.0	0.0	-0.95013	-0.13074	
2187.0	0.0	-0.94766	-0.12836	
2188.0	0.0	-0.96313	-0.11115	
2189.0	0.0	-0.96231	-0.11188	
2190.0	0.0	-0.97595	-0.10657	
2191.0	0.0	-0.97137	-0.10886	
2192.0	0.0	-0.98236	-0.09412	
2193.0	0.0	-0.97815	-0.09375	
2194.0	0.0	-0.99092	-0.0802	
2195.0	0.0	-0.9895	-0.06189	
2196.0	0.0	-1.00488	-0.04688	
2197.0	0.0	-1.0047	-0.0379	
2198.0	0.0	-1.02026	-0.02975	
2199.0	0.0	-1.01862	-0.0163	
2200.0	0.0	-1.03235	-0.01904	
2201.0	0.0	-1.02979	-0.01538	
2202.0	0.0	-1.04507	-0.00659	
2203.0	0.0	-1.04572	-0.00201	
2204.0	0.0	-1.06348	-0.0033	
2205.0	0.0	-1.06522	0.01172	
2206.0	0.0	-1.08115	0.0119	
2207.0	0.0	-1.07986	0.02289	
2208.0	0.0	-1.09286	0.02069	
2209.0	0.0	-1.08838	0.03259	
2210.0	0.0	-1.0995	0.02252	
2211.0	0.0	-1.09387	0.03845	
2212.0	0.0	-1.10577	0.0401	
2213.0	0.0	-1.10156	0.04889	
2214.0	0.0	-1.11507	0.05017	
2215.0	0.0	-1.11328	0.05127	
2216.0	0.0	-1.12793	0.06189	
2217.0	0.0	-1.12784	0.06766	
2218.0	0.0	-1.14468	0.06812	
2219.0	0.0	-1.14615	0.06537	
2220.0	0.0	-1.16336	0.07288	
2221.0	0.0	-1.16446	0.06537	
2222.0	0.0	-1.1814	0.06445	
2223.0	0.0	-1.18314	0.0575	
2224.0	0.0	-1.20319	0.05493	
2225.0	0.0	-1.2085	0.04523	
2226.0	0.0	-1.229	0.03241	
2227.0	0.0	-1.23294	0.03543	
2228.0	0.0	-1.25139	0.02783	
2229.0	0.0	-1.2523	0.0238	
2230.0	0.0	-1.2659	0.04871	
2231.0	0.0	-1.25967	0.04596	
2232.0	0.0	-1.26535	0.06079	
2233.0	0.0	-1.25089	0.08075	
2234.0	0.0	-1.25084	0.08936	
2235.0	0.0	-1.23312	0.07928	
2236.0	0.0	-1.23061	0.09338	
2237.0	0.0	-1.20969	0.10345	
2238.0	0.0	-1.20529	0.10767	
2239.0	0.0	-1.18414	0.11188	
2240.0	0.0	-1.17892	0.11261	
2241.0	0.0	-1.15631	0.10309	
2242.0	0.0	-1.14954	0.12836	
2243.0	0.0	-1.12646	0.13934	
2244.0	0.0	-1.11777	0.14923	
2245.0	0.0	-1.09259	0.15381	
2246.0	0.0	-1.08179	0.17358	
2247.0	0.0	-1.05707	0.18384	
2248.0	0.0	-1.04874	0.18677	
2249.0	0.0	-1.02731	0.18951	
2250.0	0.0	-1.02283	0.21423	
2251.0	0.0	-1.00488	0.22009	
2252.0	0.0	-1.00342	0.22614	
2253.0	0.0	-0.98749	0.24902	
2254.0	0.0	-0.9895	0.24481	
2255.0	0.0	-0.97687	0.26678	
2256.0	0.0	-0.98346	0.26221	
2257.0	0.0	-0.97888	0.28491	
2258.0	0.0	-0.99454	0.29901	
2259.0	0.0	-0.99463	0.31073	
2260.0	0.0	-1.01015	0.31403	
2261.0	0.0	-1.00708	0.3252	
2262.0	0.0	-1.0166	0.34016	
2263.0	0.0	-1.0058	0.32996	
2264.0	0.0	-1.00818	0.3479	
2265.0	0.0	-0.99188	0.3501	
2266.0	0.0	-0.9895	0.36584	
2267.0	0.0	-0.97046	0.38947	
2268.0	0.0	-0.96698	0.37903	
2269.0	0.0	-0.94995	0.39917	
2270.0	0.0	-0.94826	0.39697	
2271.0	0.0	-0.93159	0.41602	
2272.0	0.0	-0.93018	0.41675	
2273.0	0.0	-0.91388	0.42334	
2274.0	0.0	-0.91187	0.42883	
2275.0	0.0	-0.89392	0.44788	
2276.0	0.0	-0.89044	0.4519	
2277.0	0.0	-0.87286	0.44824	
2278.0	0.0	-0.87012	0.46234	
2279.0	0.0	-0.85236	0.46783	
2280.0	0.0	-0.85043	0.46674	
2281.0	0.0	-0.83258	0.4715	
2282.0	0.0	-0.8291	0.47726	
2283.0	0.0	-0.81024	0.48413	
2284.0	0.0	-0.80658	0.4812	
2285.0	0.0	-0.78992	0.47882	
2286.0	0.0	-0.78827	0.48029	
2287.0	0.0	-0.77271	0.47736	
2288.0	0.0	-0.77303	0.47314	
2289.0	0.0	-0.75989	0.479	
2290.0	0.0	-0.76355	0.48816	
2291.0	0.0	-0.75439	0.48102	
2292.0	0.0	-0.76099	0.5061	
2293.0	0.0	-0.75549	0.50867	
2294.0	0.0	-0.77106	0.50903	
2295.0	0.0	-0.77289	0.49677	
2296.0	0.0	-0.79152	0.51343	
2297.0	0.0	-0.79312	0.51453	
2298.0	0.0	-0.80914	0.50519	
2299.0	0.0	-0.80914	0.50482	
2300.0	0.0	-0.82617	0.50427	
2301.0	0.0	-0.82983	0.52661	
2302.0	0.0	-0.85172	0.52881	
2303.0	0.0	-0.8573	0.52753	
2304.0	0.0	-0.87726	0.53174	
2305.0	0.0	-0.88211	0.53375	
2306.0	0.0	-0.90106	0.53796	
2307.0	0.0	-0.90326	0.54053	
2308.0	0.0	-0.9201	0.54474	
2309.0	0.0	-0.91992	0.54932	
2310.0	0.0	-0.93549	0.55096	
2311.0	0.0	-0.93475	0.5506	
2312.0	0.0	-0.94702	0.5484	
2313.0	0.0	-0.94299	0.55225	
2314.0	0.0	-0.9537	0.53247	
2315.0	0.0	-0.94666	0.55737	
2316.0	0.0	-0.9549	0.5528	
2317.0	0.0	-0.94647	0.56378	
2318.0	0.0	-0.95462	0.56543	
2319.0	0.0	-0.94537	0.57019	
2320.0	0.0	-0.9505	0.56653	
2321.0	0.0	-0.9386	0.57129	
2322.0	0.0	-0.94116	0.56799	
2323.0	0.0	-0.92651	0.57074	
2324.0	0.0	-0.92734	0.5647	
2325.0	0.0	-0.91214	0.55664	
2326.0	0.0	-0.9131	0.54401	
2327.0	0.0	-0.8974	0.53613	
2328.0	0.0	-0.8963	0.51947	
2329.0	0.0	-0.87781	0.51691	
2330.0	0.0	-0.87451	0.5061	
2331.0	0.0	-0.85501	0.49246	
2332.0	0.0	-0.85121	0.46692	
2333.0	0.0	-0.8324	0.46802	
2334.0	0.0	-0.8302	0.45795	
2335.0	0.0	-0.81262	0.4541	
2336.0	0.0	-0.81006	0.44641	
2337.0	0.0	-0.79248	0.43524	
2338.0	0.0	-0.78918	0.44092	
2339.0	0.0	-0.77051	0.42059	
2340.0	0.0	-0.76721	0.44147	
2341.0	0.0	-0.75018	0.42664	
2342.0	0.0	-0.74817	0.4281	
2343.0	0.0	-0.73242	0.41501	
2344.0	0.0	-0.73055	0.42883	
2345.0	0.0	-0.71283	0.42627	
2346.0	0.0	-0.70898	0.40503	
2347.0	0.0	-0.69067	0.43341	
2348.0	0.0	-0.68774	0.43323	
2349.0	0.0	-0.67227	0.43085	
2350.0	0.0	-0.67328	0.43176	
2351.0	0.0	-0.659	0.42297	
2352.0	0.0	-0.65987	0.42636	
2353.0	0.0	-0.64471	0.43506	
2354.0	0.0	-0.64398	0.42957	
2355.0	0.0	-0.62787	0.44092	
2356.0	0.0	-0.62585	0.44348	
2357.0	0.0	-0.60938	0.43671	
2358.0	0.0	-0.60896	0.44055	
2359.0	0.0	-0.59363	0.44092	
2360.0	0.0	-0.59326	0.44019	
2361.0	0.0	-0.57733	0.453	
2362.0	0.0	-0.57477	0.46124	
2363.0	0.0	-0.55737	0.47003	
2364.0	0.0	-0.55426	0.47717	
2365.0	0.0	-0.53741	0.48413	
2366.0	0.0	-0.53485	0.48578	
2367.0	0.0	-0.51874	0.49365	
2368.0	0.0	-0.51855	0.49713	
2369.0	0.0	-0.50235	0.50482	
2370.0	0.0	-0.50024	0.5094	
2371.0	0.0	-0.4834	0.51251	
2372.0	0.0	-0.4812	0.51562	
2373.0	0.0	-0.46417	0.51489	
2374.0	0.0	-0.46289	0.53705	
2375.0	0.0	-0.44824	0.52954	
2376.0	0.0	-0.44971	0.54437	
2377.0	0.0	-0.43689	0.54987	
2378.0	0.0	-0.43835	0.54602	
2379.0	0.0	-0.42389	0.57129	
2380.0	0.0	-0.42334	0.57129	
2381.0	0.0	-0.40759	0.57697	
2382.0	0.0	-0.40723	0.56973	
2383.0	0.0	-0.39276	0.58136	
2384.0	0.0	-0.39331	0.58392	
2385.0	0.0	-0.3772	0.58777	
2386.0	0.0	-0.37555	0.59509	
2387.0	0.0	-0.35907	0.59216	
2388.0	0.0	-0.35687	0.60571	
2389.0	0.0	-0.33984	0.60773	
2390.0	0.0	-0.33655	0.61102	
2391.0	0.0	-0.3175	0.60498	
2392.0	0.0	-0.31192	0.60681	
2393.0	0.0	-0.29132	0.6134	
2394.0	0.0	-0.28473	0.62036	
2395.0	0.0	-0.26367	0.62732	
2396.0	0.0	-0.25671	0.62952	
2397.0	0.0	-0.23584	0.63702	
2398.0	0.0	-0.22852	0.63464	
2399.0	0.0	-0.20654	0.63757	
2400.0	0.0	-0.19812	0.6416	
2401.0	0.0	-0.17596	0.6275	
2402.0	0.0	-0.16699	0.6264	
2403.0	0.0	-0.14465	0.64618	
2404.0	0.0	-0.13531	0.62494	
2405.0	0.0	-0.11353	0.6394	
2406.0	0.0	-0.10547	0.63538	
2407.0	0.0	-0.08276	0.63391	
2408.0	0.0	-0.07324	0.62787	
2409.0	0.0	-0.05017	0.61395	
2410.0	0.0	-0.04065	0.61835	
2411.0	0.0	-0.01721	0.60352	
2412.0	0.0	-0.00861	0.56177	
2413.0	0.0	0.01245	0.51855	
2414.0	0.0	0.02014	0.46088	
2415.0	0.0	0.04486	0.40356	
2416.0	0.0	0.06097	0.33563	
2417.0	0.0	0.0965	0.25653	
2418.0	0.0	0.12543	0.17175	
2419.0	0.0	0.1701	0.09338	
2420.0	0.0	0.20233	0.01703	
2421.0	0.0	0.24646	-0.03992	
2422.0	0.0	0.27173	-0.07507	
2423.0	0.0	0.3056	-0.08679	
2424.0	0.0	0.3219	-0.104	
2425.0	0.0	0.34644	-0.11169	
2426.0	0.0	0.35028	-0.12085	
2427.0	0.0	0.35541	-0.11957	
2428.0	0.0	0.33142	-0.11829	
2429.0	0.0	0.31201	-0.10455	
2430.0	0.0	0.27319	-0.09796	
2431.0	0.0	0.25012	-0.08405	
2432.0	0.0	0.21753	-0.07617	
2433.0	0.0	0.20435	-0.06354	
2434.0	0.0	0.18164	-0.05383	
2435.0	0.0	0.17981	-0.04285	
2436.0	0.0	0.16992	-0.03552	
2437.0	0.0	0.18201	-0.02197	
2438.0	0.0	0.18384	-0.01648	
2439.0	0.0	0.20526	-0.00458	
2440.0	0.0	0.21387	0.00128	
2441.0	0.0	0.2406	0.01318	
2442.0	0.0	0.2558	0.02307	
2443.0	0.0	0.29095	0.03552	
2444.0	0.0	0.31714	0.04797	
2445.0	0.0	0.36182	0.06299	
2446.0	0.0	0.39331	0.07507	
2447.0	0.0	0.43579	0.08661	
2448.0	0.0	0.46619	0.09503	
2449.0	0.0	0.50867	0.104	
2450.0	0.0	0.53998	0.10803	
2451.0	0.0	0.58411	0.11865	
2452.0	0.0	0.61523	0.12836	
2453.0	0.0	0.65991	0.14136	
2454.0	0.0	0.69141	0.15125	
2455.0	0.0	0.73389	0.16763	
2456.0	0.0	0.7619	0.18604	
2457.0	0.0	0.8009	0.20453	
2458.0	0.0	0.82507	0.22192	
2459.0	0.0	0.85986	0.22668	
2460.0	0.0	0.88037	0.23749	
2461.0	0.0	0.91223	0.25342	
2462.0	0.0	0.92944	0.26624	
2463.0	0.0	0.95856	0.28198	
2464.0	0.0	0.97339	0.30414	
2465.0	0.0	1.00049	0.32501	
2466.0	0.0	1.01221	0.34534	
2467.0	0.0	1.03674	0.36328	
2468.0	0.0	1.04626	0.375	
2469.0	0.0	1.07007	0.38983	
2470.0	0.0	1.08215	0.41034	
2471.0	0.0	1.10413	0.41711	
2472.0	0.0	1.11511	0.42993	
2473.0	0.0	1.13672	0.44563	
2474.0	0.0	1.14551	0.45575	
2475.0	0.0	1.16455	0.47552	
2476.0	0.0	1.17261	0.48138	
2477.0	0.0	1.18982	0.50262	
2478.0	0.0	1.19385	0.51306	
2479.0	0.0	1.21033	0.5213	
2480.0	0.0	1.21252	0.52698	
2481.0	0.0	1.229	0.53467	
2482.0	0.0	1.23303	0.54456	
2483.0	0.0	1.24731	0.55865	
2484.0	0.0	1.24805	0.5647	
2485.0	0.0	1.25977	0.5755	
2486.0	0.0	1.25757	0.58685	
2487.0	0.0	1.26892	0.59747	
2488.0	0.0	1.26343	0.60645	
2489.0	0.0	1.27368	0.61359	
2490.0	0.0	1.26892	0.62512	
2491.0	0.0	1.28064	0.64252	
2492.0	0.0	1.27881	0.65057	
2493.0	0.0	1.29016	0.66577	
2494.0	0.0	1.28687	0.67657	
2495.0	0.0	1.29785	0.69012	
2496.0	0.0	1.29089	0.70441	
2497.0	0.0	1.30151	0.71521	
2498.0	0.0	1.29749	0.71924	
2499.0	0.0	1.30811	0.72684	
2500.0	0.0	1.30408	0.73755	
2501.0	0.0	1.31543	0.74799	
2502.0	0.0	1.3103	0.75604	
2503.0	0.0	1.32129	0.76868	
2504.0	0.0	1.31763	0.77765	
2505.0	0.0	1.3277	0.79211	
2506.0	0.0	1.32257	0.80566	
2507.0	0.0	1.33301	0.81427	
2508.0	0.0	1.32623	0.82269	
2509.0	0.0	1.33447	0.83423	
2510.0	0.0	1.32788	0.84302	
2511.0	0.0	1.3374	0.85895	
2512.0	0.0	1.33008	0.87085	
2513.0	0.0	1.33923	0.88806	
2514.0	0.0	1.33374	0.90015	
2515.0	0.0	1.34253	0.91333	
2516.0	0.0	1.33521	0.92267	
2517.0	0.0	1.34399	0.9342	
2518.0	0.0	1.33411	0.93896	
2519.0	0.0	1.33887	0.94666	
2520.0	0.0	1.32678	0.95654	
2521.0	0.0	1.33264	0.97046	
2522.0	0.0	1.32147	0.97961	
2523.0	0.0	1.32788	0.99994	
2524.0	0.0	1.31909	1.01221	
2525.0	0.0	1.32898	1.02905	
2526.0	0.0	1.32129	1.04077	
2527.0	0.0	1.33081	1.05634	
2528.0	0.0	1.32202	1.06531	
2529.0	0.0	1.32935	1.08362	
2530.0	0.0	1.31836	1.0968	
2531.0	0.0	1.32422	1.11108	
2532.0	0.0	1.3136	1.12299	
2533.0	0.0	1.32056	1.13965	
2534.0	0.0	1.30994	1.1554	
2535.0	0.0	1.31799	1.16949	
2536.0	0.0	1.30884	1.18103	
2537.0	0.0	1.31396	1.19659	
2538.0	0.0	1.2995	1.19897	
2539.0	0.0	1.30078	1.21252	
2540.0	0.0	1.28613	1.22058	
2541.0	0.0	1.28687	1.22772	
2542.0	0.0	1.27441	1.22552	
2543.0	0.0	1.27808	1.2453	
2544.0	0.0	1.26562	1.24567	
2545.0	0.0	1.27002	1.24915	
2546.0	0.0	1.25757	1.2572	
2547.0	0.0	1.2627	1.255	
2548.0	0.0	1.25244	1.25793	
2549.0	0.0	1.25684	1.25977	
2550.0	0.0	1.24658	1.26004	
2551.0	0.0	1.25391	1.26398	
2552.0	0.0	1.24438	1.26196	
2553.0	0.0	1.24915	1.26892	
2554.0	0.0	1.23706	1.26801	
2555.0	0.0	1.23962	1.27039	
2556.0	0.0	1.22534	1.26709	
2557.0	0.0	1.22534	1.25903	
2558.0	0.0	1.20923	1.25208	
2559.0	0.0	1.20886	1.25372	
2560.0	0.0	1.19128	1.24585	
2561.0	0.0	1.18835	1.24237	
2562.0	0.0	1.16895	1.23047	
2563.0	0.0	1.16602	1.23669	
2564.0	0.0	1.14661	1.22937	
2565.0	0.0	1.14258	1.23944	
2566.0	0.0	1.12207	1.23926	
2567.0	0.0	1.11694	1.24567	
2568.0	0.0	1.09753	1.23926	
2569.0	0.0	1.09277	1.24988	
2570.0	0.0	1.07007	1.24805	
2571.0	0.0	1.06201	1.25684	
2572.0	0.0	1.03564	1.26398	
2573.0	0.0	1.02246	1.27368	
2574.0	0.0	0.99207	1.26782	
2575.0	0.0	0.97375	1.28632	
2576.0	0.0	0.93878	1.2843	
2577.0	0.0	0.91479	1.28668	
2578.0	0.0	0.87378	1.26691	
2579.0	0.0	0.84448	1.27478	
2580.0	0.0	0.8031	1.27405	
2581.0	0.0	0.77454	1.25757	
2582.0	0.0	0.73535	1.25574	
2583.0	0.0	0.71063	1.25061	
2584.0	0.0	0.67456	1.24246	
2585.0	0.0	0.65405	1.23413	
2586.0	0.0	0.62109	1.22644	
2587.0	0.0	0.60278	1.21893	
2588.0	0.0	0.57056	1.20337	
2589.0	0.0	0.55151	1.19751	
2590.0	0.0	0.51929	1.18231	
2591.0	0.0	0.50098	1.16711	
2592.0	0.0	0.47003	1.1499	
2593.0	0.0	0.45044	1.13745	
2594.0	0.0	0.41748	1.11749	
2595.0	0.0	0.39697	1.11053	
2596.0	0.0	0.36401	1.10266	
2597.0	0.0	0.34424	1.09753	
2598.0	0.0	0.31128	1.08746	
2599.0	0.0	0.29114	1.08893	
2600.0	0.0	0.25818	1.073	
2601.0	0.0	0.23749	1.07794	
2602.0	0.0	0.20325	1.08765	
2603.0	0.0	0.18201	1.0957	
2604.0	0.0	0.14813	1.09131	
2605.0	0.0	0.12634	1.10321	
2606.0	0.0	0.08972	1.08984	
2607.0	0.0	0.06006	1.11914	
2608.0	0.0	0.01099	1.12079	
2609.0	0.0	-0.03296	1.12532	
2610.0	0.0	-0.09393	1.10559	
2611.0	0.0	-0.14575	1.11749	
2612.0	0.0	-0.20947	1.11218	
2613.0	0.0	-0.26477	1.10522	
2614.0	0.0	-0.33069	1.09598	
2615.0	0.0	-0.3847	1.08691	
2616.0	0.0	-0.44879	1.07721	
2617.0	0.0	-0.50537	1.08691	
2618.0	0.0	-0.56195	1.08582	
2619.0	0.0	-0.60754	1.07831	
2620.0	0.0	-0.65808	1.07465	
2621.0	0.0	-0.69214	1.0708	
2622.0	0.0	-0.73022	1.05927	
2623.0	0.0	-0.74945	1.05396	
2624.0	0.0	-0.77554	1.04553	
2625.0	0.0	-0.78992	1.04736	
2626.0	0.0	-0.8172	1.04224	
2627.0	0.0	-0.83524	1.02759	
2628.0	0.0	-0.86678	0.98914	
2629.0	0.0	-0.88623	1.01367	
2630.0	0.0	-0.91557	1.008	
2631.0	0.0	-0.93091	0.97046	
2632.0	0.0	-0.95357	0.99023	
2633.0	0.0	-0.9613	0.97595	
2634.0	0.0	-0.97861	0.96799	
2635.0	0.0	-0.98218	0.9635	
2636.0	0.0	-0.99765	0.95068	
2637.0	0.0	-1.00099	0.94373	
2638.0	0.0	-1.01843	0.92871	
2639.0	0.0	-1.02686	0.91534	
2640.0	0.0	-1.05066	0.8941	
2641.0	0.0	-1.0643	0.86646	
2642.0	0.0	-1.08856	0.87286	
2643.0	0.0	-1.10046	0.87177	
2644.0	0.0	-1.12202	0.85803	
2645.0	0.0	-1.13132	0.85107	
2646.0	0.0	-1.1515	0.83331	
2647.0	0.0	-1.15704	0.82544	
2648.0	0.0	-1.17389	0.81592	
2649.0	0.0	-1.17572	0.80237	
2650.0	0.0	-1.18726	0.79156	
2651.0	0.0	-1.18593	0.78278	
2652.0	0.0	-1.19875	0.76721	
2653.0	0.0	-1.19742	0.75659	
2654.0	0.0	-1.20689	0.74396	
2655.0	0.0	-1.20337	0.73499	
2656.0	0.0	-1.21326	0.72473	
2657.0	0.0	-1.20886	0.7196	
2658.0	0.0	-1.21692	0.71191	
2659.0	0.0	-1.21014	0.70276	
2660.0	0.0	-1.21591	0.69086	
2661.0	0.0	-1.2085	0.66504	
2662.0	0.0	-1.2128	0.67456	
2663.0	0.0	-1.20209	0.66577	
2664.0	0.0	-1.20259	0.66101	
2665.0	0.0	-1.18863	0.66412	
2666.0	0.0	-1.18707	0.65588	
2667.0	0.0	-1.17128	0.65076	
2668.0	0.0	-1.16876	0.64307	
2669.0	0.0	-1.1532	0.63794	
2670.0	0.0	-1.15237	0.62842	
2671.0	0.0	-1.14111	0.60608	
2672.0	0.0	-1.14313	0.60077	
2673.0	0.0	-1.13228	0.60663	
2674.0	0.0	-1.13507	0.60864	
2675.0	0.0	-1.12482	0.60736	
2676.0	0.0	-1.12976	0.60297	
2677.0	0.0	-1.12024	0.59399	
2678.0	0.0	-1.12061	0.59344	
2679.0	0.0	-1.10614	0.57971	
2680.0	0.0	-1.10623	0.58626	
2681.0	0.0	-1.09589	0.58173	
2682.0	0.0	-1.10083	0.58081	
2683.0	0.0	-1.09552	0.57623	
2684.0	0.0	-1.09991	0.57477	
2685.0	0.0	-1.09021	0.57275	
2686.0	0.0	-1.09113	0.56868	
2687.0	0.0	-1.07922	0.57953	
2688.0	0.0	-1.08014	0.58008	
2689.0	0.0	-1.06824	0.58154	
2690.0	0.0	-1.07025	0.58301	
2691.0	0.0	-1.06183	0.58887	
2692.0	0.0	-1.06659	0.59198	
2693.0	0.0	-1.05634	0.59399	
2694.0	0.0	-1.05542	0.59601	
2695.0	0.0	-1.04004	0.60406	
2696.0	0.0	-1.03693	0.6059	
2697.0	0.0	-1.02008	0.60901	
2698.0	0.0	-1.01678	0.60736	
2699.0	0.0	-1.00177	0.61176	
2700.0	0.0	-0.99994	0.61249	
2701.0	0.0	-0.98804	0.62109	
2702.0	0.0	-0.98785	0.61816	
2703.0	0.0	-0.97412	0.62842	
2704.0	0.0	-0.97375	0.62897	
2705.0	0.0	-0.96222	0.63831	
2706.0	0.0	-0.96011	0.63794	
2707.0	0.0	-0.94647	0.6535	
2708.0	0.0	-0.94446	0.64966	
2709.0	0.0	-0.93127	0.66815	
2710.0	0.0	-0.93457	0.64709	
2711.0	0.0	-0.92871	0.68097	
2712.0	0.0	-0.93494	0.69873	
2713.0	0.0	-0.93091	0.71667	
2714.0	0.0	-0.94519	0.72198	
2715.0	0.0	-0.95233	0.73773	
2716.0	0.0	-0.97778	0.75494	
2717.0	0.0	-0.99216	0.76099	
2718.0	0.0	-1.01862	0.7793	
2719.0	0.0	-1.03033	0.79211	
2720.0	0.0	-1.04993	0.8031	
2721.0	0.0	-1.05103	0.8194	
2722.0	0.0	-1.05972	0.85016	
2723.0	0.0	-1.05496	0.87048	
2724.0	0.0	-1.06073	0.88348	
2725.0	0.0	-1.05208	0.90125	
2726.0	0.0	-1.05286	0.89758	
2727.0	0.0	-1.03802	0.92157	
2728.0	0.0	-1.0329	0.92981	
2729.0	0.0	-1.01381	0.93475	
2730.0	0.0	-1.00781	0.94574	
2731.0	0.0	-0.98781	0.95782	
2732.0	0.0	-0.97737	0.96497	
2733.0	0.0	-0.95087	0.97137	
2734.0	0.0	-0.93494	0.97083	
2735.0	0.0	-0.90839	0.97211	
2736.0	0.0	-0.89447	0.94666	
2737.0	0.0	-0.86545	0.96863	
2738.0	0.0	-0.84814	0.96259	
2739.0	0.0	-0.82214	0.95343	
2740.0	0.0	-0.80704	0.97156	
2741.0	0.0	-0.77948	0.97247	
2742.0	0.0	-0.76721	0.9798	
2743.0	0.0	-0.74561	0.97815	
2744.0	0.0	-0.73718	0.98016	
2745.0	0.0	-0.71777	0.97449	
2746.0	0.0	-0.70953	0.96057	
2747.0	0.0	-0.68848	0.96021	
2748.0	0.0	-0.67822	0.96126	
2749.0	0.0	-0.65808	0.92761	
2750.0	0.0	-0.65314	0.95572	
2751.0	0.0	-0.63538	0.95471	
2752.0	0.0	-0.63062	0.95673	
2753.0	0.0	-0.61688	0.95343	
2754.0	0.0	-0.61469	0.96039	
2755.0	0.0	-0.59985	0.95673	
2756.0	0.0	-0.59766	0.95251	
2757.0	0.0	-0.58282	0.95746	
2758.0	0.0	-0.58026	0.9538	
2759.0	0.0	-0.56982	0.95178	
2760.0	0.0	-0.57587	0.95325	
2761.0	0.0	-0.57239	0.95966	
2762.0	0.0	-0.58154	0.96039	
2763.0	0.0	-0.57861	0.96121	
2764.0	0.0	-0.58301	0.95563	
2765.0	0.0	-0.57422	0.95544	
2766.0	0.0	-0.58099	0.95032	
2767.0	0.0	-0.57642	0.95068	
2768.0	0.0	-0.58447	0.94666	
2769.0	0.0	-0.58118	0.92432	
2770.0	0.0	-0.58804	0.93549	
2771.0	0.0	-0.58136	0.93054	
2772.0	0.0	-0.58887	0.93237	
2773.0	0.0	-0.58777	0.89978	
2774.0	0.0	-0.60187	0.91901	
2775.0	0.0	-0.60315	0.91846	
2776.0	0.0	-0.61707	0.9126	
2777.0	0.0	-0.61926	0.90289	
2778.0	0.0	-0.63318	0.88971	
2779.0	0.0	-0.633	0.89246	
2780.0	0.0	-0.6449	0.88696	
2781.0	0.0	-0.6416	0.87653	
2782.0	0.0	-0.64856	0.87103	
2783.0	0.0	-0.6449	0.87067	
2784.0	0.0	-0.65204	0.86298	
2785.0	0.0	-0.65039	0.86169	
2786.0	0.0	-0.66357	0.84924	
2787.0	0.0	-0.66321	0.85144	
2788.0	0.0	-0.67566	0.83789	
2789.0	0.0	-0.67383	0.83821	
2790.0	0.0	-0.68463	0.83295	
2791.0	0.0	-0.68481	0.82343	
2792.0	0.0	-0.69891	0.82874	
2793.0	0.0	-0.70001	0.83368	
2794.0	0.0	-0.71136	0.82892	
2795.0	0.0	-0.7121	0.83459	
2796.0	0.0	-0.72748	0.83734	
2797.0	0.0	-0.73224	0.83459	
2798.0	0.0	-0.74954	0.8335	
2799.0	0.0	-0.75577	0.8269	
2800.0	0.0	-0.77289	0.82288	
2801.0	0.0	-0.77509	0.80035	
2802.0	0.0	-0.78699	0.81976	
2803.0	0.0	-0.78149	0.82343	
2804.0	0.0	-0.78717	0.8139	
2805.0	0.0	-0.77966	0.81738	
2806.0	0.0	-0.78424	0.8139	
2807.0	0.0	-0.77563	0.80896	
2808.0	0.0	-0.7782	0.81372	
2809.0	0.0	-0.76584	0.80859	
2810.0	0.0	-0.76685	0.80786	
2811.0	0.0	-0.75851	0.8064	
2812.0	0.0	-0.76135	0.79559	
2813.0	0.0	-0.75055	0.79175	
2814.0	0.0	-0.74991	0.78955	
2815.0	0.0	-0.73407	0.79834	
2816.0	0.0	-0.73077	0.78552	
2817.0	0.0	-0.71741	0.78699	
2818.0	0.0	-0.71475	0.78424	
2819.0	0.0	-0.69818	0.77875	
2820.0	0.0	-0.69525	0.76996	
2821.0	0.0	-0.68225	0.77087	
2822.0	0.0	-0.68408	0.76428	
2823.0	0.0	-0.67401	0.75677	
2824.0	0.0	-0.67493	0.75897	
2825.0	0.0	-0.66229	0.75613	
2826.0	0.0	-0.65845	0.74579	
2827.0	0.0	-0.64325	0.74377	
2828.0	0.0	-0.64261	0.73718	
2829.0	0.0	-0.63153	0.71558	
2830.0	0.0	-0.63428	0.71722	
2831.0	0.0	-0.62503	0.72015	
2832.0	0.0	-0.6286	0.7066	
2833.0	0.0	-0.62018	0.71191	
2834.0	0.0	-0.62292	0.70605	
2835.0	0.0	-0.61176	0.68848	
2836.0	0.0	-0.61157	0.69397	
2837.0	0.0	-0.60004	0.68701	
2838.0	0.0	-0.60114	0.68005	
2839.0	0.0	-0.59033	0.67969	
2840.0	0.0	-0.59052	0.67474	
2841.0	0.0	-0.58154	0.66174	
2842.0	0.0	-0.5863	0.65652	
2843.0	0.0	-0.57568	0.63574	
2844.0	0.0	-0.5755	0.65186	
2845.0	0.0	-0.56305	0.64215	
2846.0	0.0	-0.56085	0.63849	
2847.0	0.0	-0.54639	0.63995	
2848.0	0.0	-0.54373	0.62695	
2849.0	0.0	-0.52899	0.6308	
2850.0	0.0	-0.52588	0.62146	
2851.0	0.0	-0.51324	0.62274	
2852.0	0.0	-0.5116	0.61707	
2853.0	0.0	-0.49658	0.6167	
2854.0	0.0	-0.49146	0.61359	
2855.0	0.0	-0.47406	0.60965	
2856.0	0.0	-0.46875	0.6015	
2857.0	0.0	-0.453	0.60095	
2858.0	0.0	-0.44769	0.5918	
2859.0	0.0	-0.43158	0.5885	
2860.0	0.0	-0.4281	0.58429	
2861.0	0.0	-0.41345	0.58228	
2862.0	0.0	-0.40869	0.56891	
2863.0	0.0	-0.39175	0.57697	
2864.0	0.0	-0.38544	0.5614	
2865.0	0.0	-0.36859	0.57239	
2866.0	0.0	-0.36401	0.56946	
2867.0	0.0	-0.34808	0.55554	
2868.0	0.0	-0.3446	0.55554	
2869.0	0.0	-0.3316	0.55847	
2870.0	0.0	-0.33069	0.5506	
2871.0	0.0	-0.31732	0.55518	
2872.0	0.0	-0.31531	0.54822	
2873.0	0.0	-0.29974	0.54712	
2874.0	0.0	-0.29755	0.53503	
2875.0	0.0	-0.28564	0.53741	
2876.0	0.0	-0.28528	0.51562	
2877.0	0.0	-0.27173	0.52716	
2878.0	0.0	-0.27045	0.52039	
2879.0	0.0	-0.25781	0.50317	
2880.0	0.0	-0.25928	0.49237	
2881.0	0.0	-0.24756	0.4953	
2882.0	0.0	-0.24573	0.49585	
2883.0	0.0	-0.23218	0.47864	
2884.0	0.0	-0.23181	0.48303	
2885.0	0.0	-0.22101	0.48047	
2886.0	0.0	-0.22247	0.46619	
2887.0	0.0	-0.21094	0.45135	
2888.0	0.0	-0.20966	0.46143	
2889.0	0.0	-0.1983	0.4585	
2890.0	0.0	-0.19904	0.45044	
2891.0	0.0	-0.18933	0.44879	
2892.0	0.0	-0.19171	0.4292	
2893.0	0.0	-0.18256	0.42297	
2894.0	0.0	-0.18494	0.42865	
2895.0	0.0	-0.17395	0.40521	
2896.0	0.0	-0.17358	0.3999	
2897.0	0.0	-0.1615	0.39789	
2898.0	0.0	-0.16003	0.40027	
2899.0	0.0	-0.14612	0.39569	
2900.0	0.0	-0.14337	0.37408	
2901.0	0.0	-0.12964	0.37299	
2902.0	0.0	-0.13165	0.36804	
2903.0	0.0	-0.12213	0.36548	
2904.0	0.0	-0.12488	0.3457	
2905.0	0.0	-0.11536	0.35248	
2906.0	0.0	-0.11609	0.33984	
2907.0	0.0	-0.10345	0.3327	
2908.0	0.0	-0.10327	0.32593	
2909.0	0.0	-0.09155	0.32373	
2910.0	0.0	-0.0921	0.32483	
2911.0	0.0	-0.0824	0.32245	
2912.0	0.0	-0.08441	0.30341	
2913.0	0.0	-0.07471	0.31366	
2914.0	0.0	-0.07654	0.30981	
2915.0	0.0	-0.06519	0.30501	
2916.0	0.0	-0.06628	0.30267	
2917.0	0.0	-0.05603	0.2948	
2918.0	0.0	-0.05823	0.30084	
2919.0	0.0	-0.04816	0.28674	
2920.0	0.0	-0.05072	0.2948	
2921.0	0.0	-0.0412	0.28308	
2922.0	0.0	-0.04541	0.28125	
2923.0	0.0	-0.03662	0.27466	
2924.0	0.0	-0.03918	0.27045	
2925.0	0.0	-0.02875	0.27942	
2926.0	0.0	-0.02948	0.26697	
2927.0	0.0	-0.01923	0.27887	
2928.0	0.0	-0.02051	0.27612	
2929.0	0.0	-0.01007	0.27905	
2930.0	0.0	-0.01245	0.27246	
2931.0	0.0	-0.00146	0.27521	
2932.0	0.0	-0.00146	0.27686	
2933.0	0.0	0.01282	0.27979	
2934.0	0.0	0.01648	0.28015	
2935.0	0.0	0.03296	0.28033	
2936.0	0.0	0.03717	0.27795	
2937.0	0.0	0.05347	0.27393	
2938.0	0.0	0.05896	0.28235	
2939.0	0.0	0.07654	0.28308	
2940.0	0.0	0.08112	0.27356	
2941.0	0.0	0.09576	0.27356	
2942.0	0.0	0.09521	0.27264	
2943.0	0.0	0.10583	0.28619	
2944.0	0.0	0.10181	0.27667	
2945.0	0.0	0.10803	0.28107	
2946.0	0.0	0.10144	0.28528	
2947.0	0.0	0.10822	0.27905	
2948.0	0.0	0.10345	0.28052	
2949.0	0.0	0.11133	0.29297	
2950.0	0.0	0.10675	0.28766	
2951.0	0.0	0.11389	0.29187	
2952.0	0.0	0.1084	0.29956	
2953.0	0.0	0.11572	0.30194	
2954.0	0.0	0.1106	0.29572	
2955.0	0.0	0.11829	0.30501	
2956.0	0.0	0.11462	0.29553	
2957.0	0.0	0.12305	0.30103	
2958.0	0.0	0.11829	0.29535	
2959.0	0.0	0.12378	0.29169	
2960.0	0.0	0.11572	0.28986	
2961.0	0.0	0.12085	0.28857	
2962.0	0.0	0.11389	0.28564	
2963.0	0.0	0.11938	0.28674	
2964.0	0.0	0.10986	0.29169	
2965.0	0.0	0.11316	0.29388	
2966.0	0.0	0.10583	0.28912	
2967.0	0.0	0.11096	0.28345	
2968.0	0.0	0.10181	0.27704	
2969.0	0.0	0.10638	0.27869	
2970.0	0.0	0.09705	0.28564	
2971.0	0.0	0.10107	0.28345	
2972.0	0.0	0.09155	0.28088	
2973.0	0.0	0.09448	0.27393	
2974.0	0.0	0.08496	0.26624	
2975.0	0.0	0.08716	0.27612	
2976.0	0.0	0.07617	0.27246	
2977.0	0.0	0.078	0.27246	
2978.0	0.0	0.06592	0.26239	
2979.0	0.0	0.06519	0.27081	
2980.0	0.0	0.05273	0.27063	
2981.0	0.0	0.05237	0.26056	
2982.0	0.0	0.03772	0.26495	
2983.0	0.0	0.03516	0.25671	
2984.0	0.0	0.02142	0.26294	
2985.0	0.0	0.02069	0.26147	
2986.0	0.0	0.00696	0.2558	
2987.0	0.0	0.00659	0.25269	
2988.0	0.0	-0.00732	0.24005	
2989.0	0.0	-0.00769	0.24335	
2990.0	0.0	-0.01904	0.23145	
2991.0	0.0	-0.01868	0.23181	
2992.0	0.0	-0.03003	0.22293	
2993.0	0.0	-0.02747	0.21368	
2994.0	0.0	-0.039	0.20068	
2995.0	0.0	-0.03937	0.19354	
2996.0	0.0	-0.05255	0.18933	
2997.0	0.0	-0.05292	0.18091	
2998.0	0.0	-0.06628	0.16132	
2999.0	0.0	-0.06592	0.15234	
3000.0	0.0	-0.07709	0.14227	
3001.0	0.0	-0.07343	0.14209	
3002.0	0.0	-0.0824	0.1344	
3003.0	0.0	-0.07745	0.12817	
3004.0	0.0	-0.08569	0.11261	
3005.0	0.0	-0.08057	0.11829	
3006.0	0.0	-0.08789	0.11224	
3007.0	0.0	-0.08112	0.1073	
3008.0	0.0	-0.08624	0.10767	
3009.0	0.0	-0.07764	0.11014	
3010.0	0.0	-0.0813	0.10199	
3011.0	0.0	-0.07324	0.11078	
3012.0	0.0	-0.0769	0.10236	
3013.0	0.0	-0.06903	0.10437	
3014.0	0.0	-0.07434	0.10519	
3015.0	0.0	-0.06665	0.10419	
3016.0	0.0	-0.07068	0.1106	
3017.0	0.0	-0.05988	0.11279	
3018.0	0.0	-0.06134	0.11316	
3019.0	0.0	-0.04907	0.1181	
3020.0	0.0	-0.04907	0.11316	
3021.0	0.0	-0.03589	0.11664	
3022.0	0.0	-0.03662	0.12337	
3023.0	0.0	-0.02637	0.13458	
3024.0	0.0	-0.02875	0.13257	
3025.0	0.0	-0.01904	0.1377	
3026.0	0.0	-0.02124	0.14264	
3027.0	0.0	-0.01062	0.14355	
3028.0	0.0	-0.01208	0.14154	
3029.0	0.0	-0.0011	0.14246	
3030.0	0.0	-0.0011	0.13898	
3031.0	0.0	0.00879	0.14172	
3032.0	0.0	0.00604	0.14246	
3033.0	0.0	0.01593	0.14429	
3034.0	0.0	0.013	0.14044	
3035.0	0.0	0.02307	0.14154	
3036.0	0.0	0.02051	0.12891	
3037.0	0.0	0.0304	0.1333	
3038.0	0.0	0.02783	0.12177	
3039.0	0.0	0.03625	0.12689	
3040.0	0.0	0.03113	0.12067	
3041.0	0.0	0.03882	0.12122	
3042.0	0.0	0.03387	0.10973	
3043.0	0.0	0.04156	0.11792	
3044.0	0.0	0.03735	0.11462	
3045.0	0.0	0.04614	0.11407	
3046.0	0.0	0.04193	0.10767	
3047.0	0.0	0.04962	0.1084	
3048.0	0.0	0.04395	0.10474	
3049.0	0.0	0.05127	0.11133	
3050.0	0.0	0.04651	0.1084	
3051.0	0.0	0.0542	0.11536	
3052.0	0.0	0.04907	0.10986	
3053.0	0.0	0.0553	0.11334	
3054.0	0.0	0.04816	0.10876	
3055.0	0.0	0.0531	0.10803	
3056.0	0.0	0.04541	0.09375	
3057.0	0.0	0.0509	0.09503	
3058.0	0.0	0.04504	0.08917	
3059.0	0.0	0.05273	0.0835	
3060.0	0.0	0.04907	0.07489	
3061.0	0.0	0.05804	0.06628	
3062.0	0.0	0.05585	0.06006	
3063.0	0.0	0.06628	0.05365	
3064.0	0.0	0.06409	0.04962	
3065.0	0.0	0.07361	0.04578	
3066.0	0.0	0.06885	0.04742	
3067.0	0.0	0.0769	0.04193	
3068.0	0.0	0.07324	0.03754	
3069.0	0.0	0.08093	0.03662	
3070.0	0.0	0.07819	0.03424	
3071.0	0.0	0.08789	0.03296	
3072.0	0.0	0.08368	0.03278	
3073.0	0.0	0.09119	0.02747	
3074.0	0.0	0.08716	0.03021	
3075.0	0.0	0.09668	0.03461	
3076.0	0.0	0.09521	0.03369	
3077.0	0.0	0.10712	0.03204	
3078.0	0.0	0.10675	0.02985	
3079.0	0.0	0.11755	0.03003	
3080.0	0.0	0.11572	0.026	
3081.0	0.0	0.12598	0.0282	
3082.0	0.0	0.12213	0.02673	
3083.0	0.0	0.13019	0.02692	
3084.0	0.0	0.12488	0.01959	
3085.0	0.0	0.13184	0.02509	
3086.0	0.0	0.12817	0.02087	
3087.0	0.0	0.13733	0.01978	
3088.0	0.0	0.13293	0.01978	
3089.0	0.0	0.14062	0.02371	
3090.0	0.0	0.13586	0.02087	
3091.0	0.0	0.14374	0.02728	
3092.0	0.0	0.13879	0.0271	
3093.0	0.0	0.14685	0.02856	
3094.0	0.0	0.14355	0.03424	
3095.0	0.0	0.15381	0.03845	
3096.0	0.0	0.15088	0.03937	
3097.0	0.0	0.15912	0.05054	
3098.0	0.0	0.15417	0.05347	
3099.0	0.0	0.1593	0.05603	
3100.0	0.0	0.14941	0.05621	
3101.0	0.0	0.15326	0.06244	
3102.0	0.0	0.14465	0.06921	
3103.0	0.0	0.15015	0.07727	
3104.0	0.0	0.14502	0.08368	
3105.0	0.0	0.15381	0.09137	
3106.0	0.0	0.15417	0.09631	
3107.0	0.0	0.16882	0.10579	
3108.0	0.0	0.17578	0.11426	
3109.0	0.0	0.19794	0.12323	
3110.0	0.0	0.21222	0.12616	
3111.0	0.0	0.23987	0.13953	
3112.0	0.0	0.26074	0.14374	
3113.0	0.0	0.2959	0.15967	
3114.0	0.0	0.32227	0.17029	
3115.0	0.0	0.36108	0.19556	
3116.0	0.0	0.3891	0.21423	
3117.0	0.0	0.42517	0.24243	
3118.0	0.0	0.44861	0.26422	
3119.0	0.0	0.48138	0.27814	
3120.0	0.0	0.50391	0.29205	
3121.0	0.0	0.53833	0.30121	
3122.0	0.0	0.56506	0.31512	
3123.0	0.0	0.60535	0.33673	
3124.0	0.0	0.63702	0.3609	
3125.0	0.0	0.67914	0.38965	
3126.0	0.0	0.70898	0.41602	
3127.0	0.0	0.74432	0.43524	
3128.0	0.0	0.76721	0.44559	
3129.0	0.0	0.8009	0.45355	
3130.0	0.0	0.82324	0.45428	
3131.0	0.0	0.8562	0.45667	
3132.0	0.0	0.87744	0.45282	
3133.0	0.0	0.9082	0.44806	
3134.0	0.0	0.92871	0.44128	
3135.0	0.0	0.95691	0.43359	
3136.0	0.0	0.97119	0.4314	
3137.0	0.0	0.99536	0.42352	
3138.0	0.0	1.00928	0.41821	
3139.0	0.0	1.03491	0.41858	
3140.0	0.0	1.0481	0.414	
3141.0	0.0	1.07153	0.41949	
3142.0	0.0	1.08179	0.41913	
3143.0	0.0	1.10193	0.42847	
3144.0	0.0	1.10907	0.42773	
3145.0	0.0	1.1272	0.41949	
3146.0	0.0	1.13123	0.39514	
3147.0	0.0	1.14771	0.388	
3148.0	0.0	1.15393	0.38992	
3149.0	0.0	1.17004	0.38342	
3150.0	0.0	1.17554	0.39185	
3151.0	0.0	1.18945	0.40247	
3152.0	0.0	1.19238	0.41638	
3153.0	0.0	1.20557	0.41254	
3154.0	0.0	1.20557	0.41217	
3155.0	0.0	1.21838	0.40833	
3156.0	0.0	1.21948	0.42206	
3157.0	0.0	1.23486	0.40961	
3158.0	0.0	1.23669	0.40558	
3159.0	0.0	1.25024	0.40247	
3160.0	0.0	1.24878	0.39954	
3161.0	0.0	1.2583	0.38123	
3162.0	0.0	1.25464	0.35614	
3163.0	0.0	1.26379	0.35266	
3164.0	0.0	1.2605	0.34387	
3165.0	0.0	1.26892	0.34625	
3166.0	0.0	1.26343	0.34296	
3167.0	0.0	1.27222	0.32776	
3168.0	0.0	1.26929	0.3067	
3169.0	0.0	1.27881	0.29681	
3170.0	0.0	1.27808	0.27338	
3171.0	0.0	1.28998	0.23914	
3172.0	0.0	1.28503	0.21661	
3173.0	0.0	1.28979	0.19519	
3174.0	0.0	1.27808	0.16626	
3175.0	0.0	1.27844	0.13971	
3176.0	0.0	1.26764	0.11115	
3177.0	0.0	1.27002	0.08624	
3178.0	0.0	1.26013	0.06152	
3179.0	0.0	1.2627	0.06262	
3180.0	0.0	1.25208	0.06335	
3181.0	0.0	1.25391	0.04395	
3182.0	0.0	1.24182	0.02472	
3183.0	0.0	1.24219	0.00128	
3184.0	0.0	1.22827	-0.04541	
3185.0	0.0	1.22754	-0.05676	
3186.0	0.0	1.21179	-0.0824	
3187.0	0.0	1.20776	-0.10455	
3188.0	0.0	1.19312	-0.12103	
3189.0	0.0	1.18909	-0.13879	
3190.0	0.0	1.17224	-0.14484	
3191.0	0.0	1.16309	-0.14301	
3192.0	0.0	1.14038	-0.15564	
3193.0	0.0	1.12646	-0.16223	
3194.0	0.0	1.09937	-0.16553	
3195.0	0.0	1.08472	-0.16553	
3196.0	0.0	1.06018	-0.16681	
3197.0	0.0	1.0481	-0.16296	
3198.0	0.0	1.02173	-0.15784	
3199.0	0.0	1.00525	-0.15839	
3200.0	0.0	0.97559	-0.17981	
3201.0	0.0	0.95398	-0.17487	
3202.0	0.0	0.91772	-0.17487	
3203.0	0.0	0.88989	-0.17056	
3204.0	0.0	0.85144	-0.15985	
3205.0	0.0	0.82361	-0.15454	
3206.0	0.0	0.78589	-0.13586	
3207.0	0.0	0.75989	-0.13495	
3208.0	0.0	0.724	-0.13385	
3209.0	0.0	0.69873	-0.13568	
3210.0	0.0	0.66046	-0.13367	
3211.0	0.0	0.63208	-0.13184	
3212.0	0.0	0.59491	-0.12817	
3213.0	0.0	0.56726	-0.11957	
3214.0	0.0	0.52826	-0.11536	
3215.0	0.0	0.49713	-0.11243	
3216.0	0.0	0.45374	-0.10785	
3217.0	0.0	0.41895	-0.09265	
3218.0	0.0	0.37189	-0.07965	
3219.0	0.0	0.33398	-0.06793	
3220.0	0.0	0.28674	-0.0575	
3221.0	0.0	0.25122	-0.04431	
3222.0	0.0	0.20544	-0.03735	
3223.0	0.0	0.16937	-0.03186	
3224.0	0.0	0.1225	-0.03131	
3225.0	0.0	0.08441	-0.02435	
3226.0	0.0	0.03552	-0.02344	
3227.0	0.0	-0.00458	-0.02051	
3228.0	0.0	-0.05438	-0.02014	
3229.0	0.0	-0.09412	-0.01355	
3230.0	0.0	-0.14502	-0.01154	
3231.0	0.0	-0.18768	0.00165	
3232.0	0.0	-0.23987	0.01135	
3233.0	0.0	-0.28363	0.02728	
3234.0	0.0	-0.33765	0.04486	
3235.0	0.0	-0.38562	0.06757	
3236.0	0.0	-0.44586	0.08862	
3237.0	0.0	-0.49951	0.10382	
3238.0	0.0	-0.55701	0.13184	
3239.0	0.0	-0.60535	0.15088	
3240.0	0.0	-0.65662	0.1761	
3241.0	0.0	-0.6991	0.20563	
3242.0	0.0	-0.74478	0.20984	
3243.0	0.0	-0.78076	0.26129	
3244.0	0.0	-0.82196	0.27667	
3245.0	0.0	-0.84998	0.29736	
3246.0	0.0	-0.88358	0.31146	
3247.0	0.0	-0.90308	0.3316	
3248.0	0.0	-0.92921	0.32043	
3249.0	0.0	-0.94299	0.31659	
3250.0	0.0	-0.96698	0.30817	
3251.0	0.0	-0.98016	0.31348	
3252.0	0.0	-1.00287	0.3175	
3253.0	0.0	-1.01312	0.30011	
3254.0	0.0	-1.03143	0.3089	
3255.0	0.0	-1.03693	0.30817	
3256.0	0.0	-1.05176	0.29407	
3257.0	0.0	-1.05524	0.29572	
3258.0	0.0	-1.06796	0.29114	
3259.0	0.0	-1.06696	0.29077	
3260.0	0.0	-1.07556	0.29077	
3261.0	0.0	-1.07098	0.28381	
3262.0	0.0	-1.07584	0.27319	
3263.0	0.0	-1.06714	0.26331	
3264.0	0.0	-1.06696	0.24408	
3265.0	0.0	-1.0546	0.20691	
3266.0	0.0	-1.05267	0.19656	
3267.0	0.0	-1.03784	0.17542	
3268.0	0.0	-1.0351	0.14905	
3269.0	0.0	-1.02347	0.14392	
3270.0	0.0	-1.02539	0.10712	
3271.0	0.0	-1.01624	0.09027	
3272.0	0.0	-1.01852	0.07507	
3273.0	0.0	-1.00873	0.06116	
3274.0	0.0	-1.00941	0.04541	
3275.0	0.0	-0.99902	0.03644	
3276.0	0.0	-0.99994	0.02179	
3277.0	0.0	-0.98813	0.01501	
3278.0	0.0	-0.98694	0.01868	
3279.0	0.0	-0.97321	0.00824	
3280.0	0.0	-0.96973	-0.00201	
3281.0	0.0	-0.95544	-0.02454	
3282.0	0.0	-0.95389	-0.01813	
3283.0	0.0	-0.94276	-0.03314	
3284.0	0.0	-0.94373	-0.04156	
3285.0	0.0	-0.93439	-0.06427	
3286.0	0.0	-0.93649	-0.06738	
3287.0	0.0	-0.92743	-0.07471	
3288.0	0.0	-0.92981	-0.08093	
3289.0	0.0	-0.92065	-0.08624	
3290.0	0.0	-0.92322	-0.07397	
3291.0	0.0	-0.91406	-0.07819	
3292.0	0.0	-0.91699	-0.08478	
3293.0	0.0	-0.90948	-0.08569	
3294.0	0.0	-0.91296	-0.09009	
3295.0	0.0	-0.90509	-0.1084	
3296.0	0.0	-0.90857	-0.1073	
3297.0	0.0	-0.89969	-0.12854	
3298.0	0.0	-0.90308	-0.1344	
3299.0	0.0	-0.89465	-0.14172	
3300.0	0.0	-0.89685	-0.15363	
3301.0	0.0	-0.88806	-0.16443	
3302.0	0.0	-0.89008	-0.18256	
3303.0	0.0	-0.88	-0.18842	
3304.0	0.0	-0.87991	-0.20032	
3305.0	0.0	-0.8681	-0.21497	
3306.0	0.0	-0.86664	-0.21661	
3307.0	0.0	-0.85327	-0.21588	
3308.0	0.0	-0.85208	-0.22778	
3309.0	0.0	-0.84027	-0.23639	
3310.0	0.0	-0.84229	-0.23804	
3311.0	0.0	-0.83414	-0.22485	
3312.0	0.0	-0.83661	-0.22302	
3313.0	0.0	-0.82672	-0.20142	
3314.0	0.0	-0.827	-0.18475	
3315.0	0.0	-0.81555	-0.1842	
3316.0	0.0	-0.81473	-0.16351	
3317.0	0.0	-0.80402	-0.14429	
3318.0	0.0	-0.80328	-0.11792	
3319.0	0.0	-0.7934	-0.09686	
3320.0	0.0	-0.79376	-0.07755	
3321.0	0.0	-0.78369	-0.05951	
3322.0	0.0	-0.78516	-0.0498	
3323.0	0.0	-0.77499	-0.04395	
3324.0	0.0	-0.77463	-0.02783	
3325.0	0.0	-0.76144	-0.01886	
3326.0	0.0	-0.75732	-0.00989	
3327.0	0.0	-0.74112	0.0108	
3328.0	0.0	-0.7348	0.01813	
3329.0	0.0	-0.71741	0.02783	
3330.0	0.0	-0.71338	0.02376	
3331.0	0.0	-0.70496	0.03973	
3332.0	0.0	-0.72034	0.03168	
3333.0	0.0	-0.73737	0.03479	
3334.0	0.0	-0.77225	0.03223	
3335.0	0.0	-0.8009	0.03333	
3336.0	0.0	-0.83936	0.03131	
3337.0	0.0	-0.86444	0.02911	
3338.0	0.0	-0.89594	0.02747	
3339.0	0.0	-0.91187	0.03589	
3340.0	0.0	-0.93375	0.03204	
3341.0	0.0	-0.93979	0.02893	
3342.0	0.0	-0.95242	0.01465	
3343.0	0.0	-0.94977	0.02289	
3344.0	0.0	-0.95453	0.02051	
3345.0	0.0	-0.94373	0.03003	
3346.0	0.0	-0.94025	0.03442	
3347.0	0.0	-0.9212	0.02307	
3348.0	0.0	-0.90857	0.04028	
3349.0	0.0	-0.88165	0.03625	
3350.0	0.0	-0.86334	0.0379	
3351.0	0.0	-0.83423	0.03259	
3352.0	0.0	-0.81573	0.03204	
3353.0	0.0	-0.78607	0.0249	
3354.0	0.0	-0.76831	0.03406	
3355.0	0.0	-0.74084	0.02032	
3356.0	0.0	-0.7251	0.00073	
3357.0	0.0	-0.70056	0.00027	
3358.0	0.0	-0.68848	-0.00275	
3359.0	0.0	-0.66724	-0.00568	
3360.0	0.0	-0.65753	-0.02234	
3361.0	0.0	-0.63702	-0.00293	
3362.0	0.0	-0.6275	-0.01392	
3363.0	0.0	-0.60718	-0.01575	
3364.0	0.0	-0.59802	-0.01758	
3365.0	0.0	-0.57852	-0.00751	
3366.0	0.0	-0.56982	-0.01392	
3367.0	0.0	-0.5506	-0.00842	
3368.0	0.0	-0.54163	-0.00934	
3369.0	0.0	-0.52368	0.00032	
3370.0	0.0	-0.51727	0.00183	
3371.0	0.0	-0.50446	0.00439	
3372.0	0.0	-0.50812	0.00696	
3373.0	0.0	-0.50491	0.00458	
3374.0	0.0	-0.51636	0.01831	
3375.0	0.0	-0.52771	0.02802	
3376.0	0.0	-0.55518	0.01904	
3377.0	0.0	-0.57019	0.02737	
3378.0	0.0	-0.58997	0.03827	
3379.0	0.0	-0.59363	0.04504	
3380.0	0.0	-0.6026	0.05658	
3381.0	0.0	-0.59528	0.06464	
3382.0	0.0	-0.59473	0.06281	
3383.0	0.0	-0.58191	0.0705	
3384.0	0.0	-0.57715	0.07416	
3385.0	0.0	-0.56122	0.07782	
3386.0	0.0	-0.55481	0.078	
3387.0	0.0	-0.53613	0.08899	
3388.0	0.0	-0.52679	0.07782	
3389.0	0.0	-0.50565	0.0976	
3390.0	0.0	-0.49512	0.08789	
3391.0	0.0	-0.47516	0.10272	
3392.0	0.0	-0.46655	0.0932	
3393.0	0.0	-0.44714	0.08231	
3394.0	0.0	-0.43689	0.08972	
3395.0	0.0	-0.41711	0.09448	
3396.0	0.0	-0.40723	0.0899	
3397.0	0.0	-0.38654	0.08643	
3398.0	0.0	-0.37665	0.07516	
3399.0	0.0	-0.35742	0.07471	
3400.0	0.0	-0.34845	0.06226	
3401.0	0.0	-0.33014	0.06866	
3402.0	0.0	-0.32281	0.06866	
3403.0	0.0	-0.30652	0.06519	
3404.0	0.0	-0.30048	0.07269	
3405.0	0.0	-0.28473	0.06812	
3406.0	0.0	-0.27933	0.07471	
3407.0	0.0	-0.26404	0.06958	
3408.0	0.0	-0.25964	0.07361	
3409.0	0.0	-0.24664	0.07187	
3410.0	0.0	-0.24445	0.06079	
3411.0	0.0	-0.23273	0.06152	
3412.0	0.0	-0.23071	0.06079	
3413.0	0.0	-0.21863	0.06592	
3414.0	0.0	-0.2168	0.0683	
3415.0	0.0	-0.20636	0.08167	
3416.0	0.0	-0.20544	0.09174	
3417.0	0.0	-0.19537	0.11481	
3418.0	0.0	-0.19446	0.11847	
3419.0	0.0	-0.1842	0.1203	
3420.0	0.0	-0.18457	0.13257	
3421.0	0.0	-0.17413	0.13843	
3422.0	0.0	-0.17413	0.13312	
3423.0	0.0	-0.16406	0.13971	
3424.0	0.0	-0.16406	0.14355	
3425.0	0.0	-0.15326	0.13422	
3426.0	0.0	-0.15262	0.14539	
3427.0	0.0	-0.14136	0.14081	
3428.0	0.0	-0.13806	0.14539	
3429.0	0.0	-0.12524	0.13568	
3430.0	0.0	-0.1225	0.14044	
3431.0	0.0	-0.10931	0.13733	
3432.0	0.0	-0.10657	0.12817	
3433.0	0.0	-0.09247	0.11746	
3434.0	0.0	-0.08789	0.10968	
3435.0	0.0	-0.07269	0.104	
3436.0	0.0	-0.06628	0.09283	
3437.0	0.0	-0.05035	0.09357	
3438.0	0.0	-0.04395	0.08185	
3439.0	0.0	-0.02728	0.08276	
3440.0	0.0	-0.01996	0.08185	
3441.0	0.0	-0.00293	0.07416	
3442.0	0.0	0.00531	0.06335	
3443.0	0.0	0.02197	0.06006	
3444.0	0.0	0.02838	0.05438	
3445.0	0.0	0.04431	0.04156	
3446.0	0.0	0.0498	0.03827	
3447.0	0.0	0.0639	0.02856	
3448.0	0.0	0.06757	0.01611	
3449.0	0.0	0.08075	0.00092	
3450.0	0.0	0.0835	-0.02197	
3451.0	0.0	0.09576	-0.04047	
3452.0	0.0	0.09943	-0.06042	
3453.0	0.0	0.11279	-0.08221	
3454.0	0.0	0.11646	-0.10638	
3455.0	0.0	0.12927	-0.12744	
3456.0	0.0	0.12964	-0.14282	
3457.0	0.0	0.13715	-0.15179	
3458.0	0.0	0.13257	-0.16168	
3459.0	0.0	0.13477	-0.17322	
3460.0	0.0	0.12305	-0.19208	
3461.0	0.0	0.11719	-0.2124	
3462.0	0.0	0.09961	-0.2341	
3463.0	0.0	0.0921	-0.25616	
3464.0	0.0	0.07526	-0.27393	
3465.0	0.0	0.06665	-0.29114	
3466.0	0.0	0.04688	-0.30276	
3467.0	0.0	0.03589	-0.30743	
3468.0	0.0	0.01282	-0.31	
3469.0	0.0	-0.00146	-0.31238	
3470.0	0.0	-0.02747	-0.31714	
3471.0	0.0	-0.04413	-0.31696	
3472.0	0.0	-0.07159	-0.32162	
3473.0	0.0	-0.08936	-0.32629	
3474.0	0.0	-0.11517	-0.33417	
3475.0	0.0	-0.13055	-0.34003	
3476.0	0.0	-0.15234	-0.34882	
3477.0	0.0	-0.16223	-0.35303	
3478.0	0.0	-0.17944	-0.35962	
3479.0	0.0	-0.18512	-0.36182	
3480.0	0.0	-0.19995	-0.36319	
3481.0	0.0	-0.2038	-0.36237	
3482.0	0.0	-0.21533	-0.36658	
3483.0	0.0	-0.21497	-0.37225	
3484.0	0.0	-0.22046	-0.37555	
3485.0	0.0	-0.21497	-0.37408	
3486.0	0.0	-0.21808	-0.37006	
3487.0	0.0	-0.21057	-0.36163	
3488.0	0.0	-0.21057	-0.35559	
3489.0	0.0	-0.19995	-0.35248	
3490.0	0.0	-0.19922	-0.3501	
3491.0	0.0	-0.1908	-0.34406	
3492.0	0.0	-0.19226	-0.3392	
3493.0	0.0	-0.18604	-0.33472	
3494.0	0.0	-0.19153	-0.33014	
3495.0	0.0	-0.18988	-0.32904	
3496.0	0.0	-0.19958	-0.33344	
3497.0	0.0	-0.20032	-0.33966	
3498.0	0.0	-0.21021	-0.34937	
3499.0	0.0	-0.21112	-0.35687	
3500.0	0.0	-0.22229	-0.36255	
3501.0	0.0	-0.22705	-0.36053	
3502.0	0.0	-0.24536	-0.35907	
3503.0	0.0	-0.258	-0.35724	
3504.0	0.0	-0.28015	-0.35486	
3505.0	0.0	-0.29462	-0.35706	
3506.0	0.0	-0.31714	-0.36914	
3507.0	0.0	-0.33087	-0.37335	
3508.0	0.0	-0.35266	-0.38562	
3509.0	0.0	-0.36163	-0.39001	
3510.0	0.0	-0.37372	-0.40265	
3511.0	0.0	-0.37079	-0.40723	
3512.0	0.0	-0.37189	-0.40796	
3513.0	0.0	-0.35815	-0.41309	
3514.0	0.0	-0.35028	-0.41199	
3515.0	0.0	-0.33051	-0.41364	
3516.0	0.0	-0.31897	-0.41693	
3517.0	0.0	-0.29956	-0.414	
3518.0	0.0	-0.28894	-0.41025	
3519.0	0.0	-0.26907	-0.40521	
3520.0	0.0	-0.25635	-0.39917	
3521.0	0.0	-0.23291	-0.39697	
3522.0	0.0	-0.21716	-0.40118	
3523.0	0.0	-0.19135	-0.40668	
3524.0	0.0	-0.17322	-0.4162	
3525.0	0.0	-0.14557	-0.42334	
3526.0	0.0	-0.12598	-0.42609	
3527.0	0.0	-0.09778	-0.41959	
3528.0	0.0	-0.07654	-0.40594	
3529.0	0.0	-0.04541	-0.39899	
3530.0	0.0	-0.02014	-0.3891	
3531.0	0.0	0.01428	-0.38599	
3532.0	0.0	0.0401	-0.37573	
3533.0	0.0	0.07324	-0.37573	
3534.0	0.0	0.09375	-0.37152	
3535.0	0.0	0.11426	-0.35962	
3536.0	0.0	0.11499	-0.33417	
3537.0	0.0	0.12012	-0.30048	
3538.0	0.0	0.11407	-0.28235	
3539.0	0.0	0.11682	-0.27209	
3540.0	0.0	0.1095	-0.26971	
3541.0	0.0	0.11096	-0.26953	
3542.0	0.0	0.10492	-0.26935	
3543.0	0.0	0.10986	-0.26514	
3544.0	0.0	0.1095	-0.26276	
3545.0	0.0	0.12433	-0.25452	
3546.0	0.0	0.13623	-0.25525	
3547.0	0.0	0.16205	-0.24719	
3548.0	0.0	0.18439	-0.23859	
3549.0	0.0	0.21844	-0.22742	
3550.0	0.0	0.24628	-0.20966	
3551.0	0.0	0.28326	-0.1897	
3552.0	0.0	0.31238	-0.16882	
3553.0	0.0	0.3501	-0.1463	
3554.0	0.0	0.37885	-0.12836	
3555.0	0.0	0.41235	-0.10693	
3556.0	0.0	0.43689	-0.08569	
3557.0	0.0	0.46747	-0.05859	
3558.0	0.0	0.48871	-0.03571	
3559.0	0.0	0.51782	-0.0033	
3560.0	0.0	0.5387	0.01648	
3561.0	0.0	0.56799	0.04193	
3562.0	0.0	0.58832	0.05896	
3563.0	0.0	0.61523	0.07855	
3564.0	0.0	0.63135	0.09668	
3565.0	0.0	0.6535	0.11041	
3566.0	0.0	0.66449	0.12268	
3567.0	0.0	0.68115	0.13165	
3568.0	0.0	0.68939	0.14282	
3569.0	0.0	0.70349	0.15436	
3570.0	0.0	0.70825	0.16663	
3571.0	0.0	0.71997	0.17944	
3572.0	0.0	0.71997	0.19336	
3573.0	0.0	0.7262	0.21625	
3574.0	0.0	0.72217	0.2309	
3575.0	0.0	0.7262	0.25232	
3576.0	0.0	0.72034	0.27026	
3577.0	0.0	0.7251	0.2915	
3578.0	0.0	0.7218	0.31	
3579.0	0.0	0.72766	0.33344	
3580.0	0.0	0.7262	0.35175	
3581.0	0.0	0.7326	0.36914	
3582.0	0.0	0.73059	0.38232	
3583.0	0.0	0.73608	0.39624	
3584.0	0.0	0.73389	0.40649	
3585.0	0.0	0.74158	0.41895	
3586.0	0.0	0.73901	0.42957	
3587.0	0.0	0.74451	0.44019	
3588.0	0.0	0.74121	0.44952	
3589.0	0.0	0.74744	0.45703	
3590.0	0.0	0.74414	0.46472	
3591.0	0.0	0.75073	0.46985	
3592.0	0.0	0.74927	0.4725	
3593.0	0.0	0.75696	0.47607	
3594.0	0.0	0.75439	0.47626	
3595.0	0.0	0.76025	0.47534	
3596.0	0.0	0.75586	0.47607	
3597.0	0.0	0.75879	0.48047	
3598.0	0.0	0.75293	0.48267	
3599.0	0.0	0.75476	0.48651	
3600.0	0.0	0.74579	0.48761	
3601.0	0.0	0.74597	0.48889	
3602.0	0.0	0.73645	0.49438	
3603.0	0.0	0.73535	0.49933	
3604.0	0.0	0.7262	0.50336	
3605.0	0.0	0.72546	0.51453	
3606.0	0.0	0.71558	0.52368	
3607.0	0.0	0.71484	0.5354	
3608.0	0.0	0.70605	0.54053	
3609.0	0.0	0.70532	0.54675	
3610.0	0.0	0.69653	0.55243	
3611.0	0.0	0.69653	0.5592	
3612.0	0.0	0.68848	0.57056	
3613.0	0.0	0.68884	0.58246	
3614.0	0.0	0.68115	0.59949	
3615.0	0.0	0.68115	0.61615	
3616.0	0.0	0.672	0.63977	
3617.0	0.0	0.6698	0.65845	
3618.0	0.0	0.65881	0.67126	
3619.0	0.0	0.65717	0.68555	
3620.0	0.0	0.64746	0.68555	
3621.0	0.0	0.64856	0.6991	
3622.0	0.0	0.6427	0.70312	
3623.0	0.0	0.64783	0.71484	
3624.0	0.0	0.64636	0.71516	
3625.0	0.0	0.65442	0.73572	
3626.0	0.0	0.65405	0.74396	
3627.0	0.0	0.66101	0.75623	
3628.0	0.0	0.65991	0.76721	
3629.0	0.0	0.66449	0.7804	
3630.0	0.0	0.65936	0.79449	
3631.0	0.0	0.66046	0.80475	
3632.0	0.0	0.65222	0.815	
3633.0	0.0	0.65039	0.82819	
3634.0	0.0	0.6394	0.83679	
3635.0	0.0	0.63721	0.84668	
3636.0	0.0	0.62659	0.85071	
3637.0	0.0	0.62512	0.8573	
3638.0	0.0	0.6156	0.8595	
3639.0	0.0	0.61414	0.86389	
3640.0	0.0	0.60461	0.85565	
3641.0	0.0	0.60278	0.87598	
3642.0	0.0	0.59216	0.87982	
3643.0	0.0	0.5885	0.88403	
3644.0	0.0	0.57568	0.89502	
3645.0	0.0	0.57129	0.89905	
3646.0	0.0	0.55756	0.90381	
3647.0	0.0	0.55298	0.89758	
3648.0	0.0	0.54126	0.90729	
3649.0	0.0	0.53906	0.9093	
3650.0	0.0	0.52771	0.90564	
3651.0	0.0	0.52441	0.90839	
3652.0	0.0	0.51233	0.91003	
3653.0	0.0	0.50867	0.9093	
3654.0	0.0	0.49658	0.91553	
3655.0	0.0	0.49219	0.92285	
3656.0	0.0	0.47919	0.92505	
3657.0	0.0	0.47534	0.93713	
3658.0	0.0	0.46344	0.93782	
3659.0	0.0	0.46033	0.94794	
3660.0	0.0	0.44861	0.95325	
3661.0	0.0	0.44641	0.95325	
3662.0	0.0	0.43744	0.95947	
3663.0	0.0	0.43799	0.96588	
3664.0	0.0	0.43066	0.96771	
3665.0	0.0	0.4314	0.97705	
3666.0	0.0	0.42554	0.97522	
3667.0	0.0	0.42847	1.00305	
3668.0	0.0	0.42444	0.99957	
3669.0	0.0	0.4303	1.01514	
3670.0	0.0	0.42792	1.02484	
3671.0	0.0	0.43433	1.03052	
3672.0	0.0	0.4314	1.03693	
3673.0	0.0	0.43762	1.03436	
3674.0	0.0	0.43689	1.04462	
3675.0	0.0	0.44476	1.05634	
3676.0	0.0	0.44568	1.05579	
3677.0	0.0	0.45428	1.07245	
3678.0	0.0	0.45557	1.07739	
3679.0	0.0	0.46454	1.07831	
3680.0	0.0	0.46619	1.0849	
3681.0	0.0	0.47681	1.08179	
3682.0	0.0	0.4801	1.08527	
3683.0	0.0	0.49292	1.08417	
3684.0	0.0	0.49695	1.09387	
3685.0	0.0	0.50903	1.10175	
3686.0	0.0	0.51379	1.10522	
3687.0	0.0	0.52771	1.11237	
3688.0	0.0	0.53467	1.11731	
3689.0	0.0	0.55078	1.11621	
3690.0	0.0	0.55811	1.11749	
3691.0	0.0	0.57275	1.11914	
3692.0	0.0	0.57861	1.11877	
3693.0	0.0	0.59125	1.12225	
3694.0	0.0	0.59418	1.1228	
3695.0	0.0	0.60352	1.1109	
3696.0	0.0	0.60571	1.1283	
3697.0	0.0	0.6134	1.13214	
3698.0	0.0	0.61359	1.12976	
3699.0	0.0	0.62292	1.13269	
3700.0	0.0	0.62476	1.12646	
3701.0	0.0	0.63574	1.12811	
3702.0	0.0	0.6394	1.13434	
3703.0	0.0	0.65039	1.13049	
3704.0	0.0	0.65332	1.12445	
3705.0	0.0	0.66357	1.1239	
3706.0	0.0	0.66357	1.12225	
3707.0	0.0	0.6709	1.11658	
3708.0	0.0	0.6709	1.12097	
3709.0	0.0	0.67749	1.10266	
3710.0	0.0	0.67603	1.11035	
3711.0	0.0	0.68115	1.10596	
3712.0	0.0	0.67786	1.0957	
3713.0	0.0	0.68115	1.08398	
3714.0	0.0	0.67383	1.07025	
3715.0	0.0	0.67474	1.05501	
3716.0	0.0	0.66797	1.03802	
3717.0	0.0	0.66888	1.01605	
3718.0	0.0	0.66211	1.01093	
3719.0	0.0	0.66504	1.00122	
3720.0	0.0	0.66101	0.98401	
3721.0	0.0	0.66394	0.97485	
3722.0	0.0	0.65918	0.95398	
3723.0	0.0	0.66302	0.94537	
3724.0	0.0	0.66028	0.93311	
3725.0	0.0	0.66431	0.91956	
3726.0	0.0	0.65936	0.90948	
3727.0	0.0	0.66174	0.89868	
3728.0	0.0	0.65332	0.88495	
3729.0	0.0	0.64966	0.87762	
3730.0	0.0	0.63721	0.86646	
3731.0	0.0	0.63428	0.85693	
3732.0	0.0	0.62219	0.84375	
3733.0	0.0	0.61963	0.83295	
3734.0	0.0	0.60938	0.81921	
3735.0	0.0	0.60791	0.80969	
3736.0	0.0	0.60059	0.8042	
3737.0	0.0	0.60278	0.79449	
3738.0	0.0	0.59583	0.77856	
3739.0	0.0	0.59729	0.78223	
3740.0	0.0	0.59033	0.77618	
3741.0	0.0	0.59106	0.76996	
3742.0	0.0	0.58429	0.763	
3743.0	0.0	0.58521	0.76373	
3744.0	0.0	0.58081	0.75696	
3745.0	0.0	0.58484	0.74377	
3746.0	0.0	0.58118	0.74597	
3747.0	0.0	0.58539	0.7478	
3748.0	0.0	0.58228	0.74414	
3749.0	0.0	0.58411	0.73938	
3750.0	0.0	0.57861	0.7348	
3751.0	0.0	0.58026	0.73132	
3752.0	0.0	0.57642	0.71759	
3753.0	0.0	0.58008	0.71832	
3754.0	0.0	0.57678	0.71338	
3755.0	0.0	0.58228	0.70789	
3756.0	0.0	0.58081	0.70642	
3757.0	0.0	0.5874	0.70642	
3758.0	0.0	0.5874	0.70807	
3759.0	0.0	0.59399	0.7099	
3760.0	0.0	0.5918	0.70422	
3761.0	0.0	0.59729	0.70111	
3762.0	0.0	0.59436	0.68884	
3763.0	0.0	0.59802	0.69159	
3764.0	0.0	0.59399	0.68408	
3765.0	0.0	0.59692	0.68243	
3766.0	0.0	0.5918	0.67822	
3767.0	0.0	0.59546	0.672	
3768.0	0.0	0.59216	0.66357	
3769.0	0.0	0.59802	0.65039	
3770.0	0.0	0.59656	0.64655	
3771.0	0.0	0.60278	0.63684	
3772.0	0.0	0.6004	0.61597	
3773.0	0.0	0.60645	0.60938	
3774.0	0.0	0.60443	0.59216	
3775.0	0.0	0.6123	0.57532	
3776.0	0.0	0.61157	0.5614	
3777.0	0.0	0.62109	0.54657	
3778.0	0.0	0.62183	0.53522	
3779.0	0.0	0.63153	0.5257	
3780.0	0.0	0.63208	0.52368	
3781.0	0.0	0.64105	0.51965	
3782.0	0.0	0.64124	0.51361	
3783.0	0.0	0.64819	0.51453	
3784.0	0.0	0.64746	0.51123	
3785.0	0.0	0.65332	0.50793	
3786.0	0.0	0.64966	0.5083	
3787.0	0.0	0.65259	0.50647	
3788.0	0.0	0.64673	0.50281	
3789.0	0.0	0.64856	0.4986	
3790.0	0.0	0.64197	0.49438	
3791.0	0.0	0.6438	0.49695	
3792.0	0.0	0.63757	0.49237	
3793.0	0.0	0.64014	0.50043	
3794.0	0.0	0.63428	0.50262	
3795.0	0.0	0.63611	0.50903	
3796.0	0.0	0.63025	0.51855	
3797.0	0.0	0.63281	0.53119	
3798.0	0.0	0.62769	0.54749	
3799.0	0.0	0.6319	0.56689	
3800.0	0.0	0.63007	0.58411	
3801.0	0.0	0.63904	0.6134	
3802.0	0.0	0.64069	0.63757	
3803.0	0.0	0.65186	0.6676	
3804.0	0.0	0.65625	0.69635	
3805.0	0.0	0.66943	0.72688	
3806.0	0.0	0.67529	0.75348	
3807.0	0.0	0.68774	0.77783	
3808.0	0.0	0.69104	0.80804	
3809.0	0.0	0.70459	0.8454	
3810.0	0.0	0.71155	0.87634	
3811.0	0.0	0.7262	0.9104	
3812.0	0.0	0.73187	0.93146	
3813.0	0.0	0.74597	0.96881	
3814.0	0.0	0.75073	0.99609	
3815.0	0.0	0.76318	1.02228	
3816.0	0.0	0.76904	1.04883	
3817.0	0.0	0.78442	1.07135	
3818.0	0.0	0.79321	1.08984	
3819.0	0.0	0.81079	1.11548	
3820.0	0.0	0.82324	1.13745	
3821.0	0.0	0.84631	1.15833	
3822.0	0.0	0.86426	1.18378	
3823.0	0.0	0.89355	1.20117	
3824.0	0.0	0.91919	1.21838	
3825.0	0.0	0.95142	1.2301	
3826.0	0.0	0.97485	1.24585	
3827.0	0.0	1.00378	1.26123	
3828.0	0.0	1.02209	1.27167	
3829.0	0.0	1.04681	1.29236	
3830.0	0.0	1.06311	1.3017	
3831.0	0.0	1.08618	1.30957	
3832.0	0.0	1.1001	1.32422	
3833.0	0.0	1.12024	1.32687	
3834.0	0.0	1.13232	1.34436	
3835.0	0.0	1.151	1.34985	
3836.0	0.0	1.15942	1.36304	
3837.0	0.0	1.17645	1.3699	
3838.0	0.0	1.18579	1.38007	
3839.0	0.0	1.20264	1.38702	
3840.0	0.0	1.21143	1.39233	
3841.0	0.0	1.22699	1.39709	
3842.0	0.0	1.2312	1.39929	
3843.0	0.0	1.2431	1.40652	
3844.0	0.0	1.24658	1.40515	
3845.0	0.0	1.2572	1.40552	
3846.0	0.0	1.2594	1.40973	
3847.0	0.0	1.27002	1.42273	
3848.0	0.0	1.27148	1.42529	
3849.0	0.0	1.28101	1.42401	
3850.0	0.0	1.28174	1.41174	
3851.0	0.0	1.28979	1.39764	
3852.0	0.0	1.28888	1.37512	
3853.0	0.0	1.29639	1.35297	
3854.0	0.0	1.29437	1.33484	
3855.0	0.0	1.3006	1.31689	
3856.0	0.0	1.29785	1.30225	
3857.0	0.0	1.30408	1.29272	
3858.0	0.0	1.30225	1.28027	
3859.0	0.0	1.30884	1.28027	
3860.0	0.0	1.30664	1.26709	
3861.0	0.0	1.31287	1.26984	
3862.0	0.0	1.31177	1.25079	
3863.0	0.0	1.31836	1.23074	
3864.0	0.0	1.31543	1.21014	
3865.0	0.0	1.32092	1.19055	
3866.0	0.0	1.31689	1.16895	
3867.0	0.0	1.32202	1.16125	
3868.0	0.0	1.31909	1.1424	
3869.0	0.0	1.32532	1.13855	
3870.0	0.0	1.32385	1.12152	
3871.0	0.0	1.33044	1.12079	
3872.0	0.0	1.32715	1.11017	
3873.0	0.0	1.33154	1.10046	
3874.0	0.0	1.32495	1.08893	
3875.0	0.0	1.32568	1.07483	
3876.0	0.0	1.31433	1.05945	
3877.0	0.0	1.30664	1.03931	
3878.0	0.0	1.28613	1.01019	
3879.0	0.0	1.27185	0.98126	
3880.0	0.0	1.24658	0.94666	
3881.0	0.0	1.22974	0.92029	
3882.0	0.0	1.2041	0.89246	
3883.0	0.0	1.18524	0.87085	
3884.0	0.0	1.15778	0.84778	
3885.0	0.0	1.13818	0.82104	
3886.0	0.0	1.11035	0.78973	
3887.0	0.0	1.08728	0.75357	
3888.0	0.0	1.05286	0.71979	
3889.0	0.0	1.02429	0.69452	
3890.0	0.0	0.98364	0.67786	
3891.0	0.0	0.94958	0.67731	
3892.0	0.0	0.90747	0.67126	
3893.0	0.0	0.86938	0.67236	
3894.0	0.0	0.82068	0.65652	
3895.0	0.0	0.77856	0.64014	
3896.0	0.0	0.73059	0.60956	
3897.0	0.0	0.68921	0.57806	
3898.0	0.0	0.64252	0.55609	
3899.0	0.0	0.60278	0.53064	
3900.0	0.0	0.55811	0.51544	
3901.0	0.0	0.52148	0.51068	
3902.0	0.0	0.47864	0.50171	
3903.0	0.0	0.44458	0.50629	
3904.0	0.0	0.40503	0.50116	
3905.0	0.0	0.37225	0.49768	
3906.0	0.0	0.33362	0.48779	
3907.0	0.0	0.30396	0.4845	
3908.0	0.0	0.2688	0.47131	
3909.0	0.0	0.2439	0.46381	
3910.0	0.0	0.21478	0.44165	
3911.0	0.0	0.19702	0.42316	
3912.0	0.0	0.17578	0.38342	
3913.0	0.0	0.16315	0.35156	
3914.0	0.0	0.14392	0.30725	
3915.0	0.0	0.12927	0.27301	
3916.0	0.0	0.10547	0.22961	
3917.0	0.0	0.08936	0.20325	
3918.0	0.0	0.06628	0.16406	
3919.0	0.0	0.05292	0.12991	
3920.0	0.0	0.03149	0.09613	
3921.0	0.0	0.01831	0.06299	
3922.0	0.0	-0.00293	0.02362	
3923.0	0.0	-0.0174	-0.00732	
3924.0	0.0	-0.04156	-0.03589	
3925.0	0.0	-0.05951	-0.07004	
3926.0	0.0	-0.08496	-0.09796	
3927.0	0.0	-0.10162	-0.12488	
3928.0	0.0	-0.12589	-0.15701	
3929.0	0.0	-0.13953	-0.18311	
3930.0	0.0	-0.1582	-0.21368	
3931.0	0.0	-0.16699	-0.23785	
3932.0	0.0	-0.18164	-0.25543	
3933.0	0.0	-0.18787	-0.27118	
3934.0	0.0	-0.2016	-0.28455	
3935.0	0.0	-0.20865	-0.29443	
3936.0	0.0	-0.22375	-0.30103	
3937.0	0.0	-0.23273	-0.30121	
3938.0	0.0	-0.24994	-0.30139	
3939.0	0.0	-0.26001	-0.29187	
3940.0	0.0	-0.27759	-0.28198	
3941.0	0.0	-0.28619	-0.25662	
3942.0	0.0	-0.30066	-0.23822	
3943.0	0.0	-0.30652	-0.2179	
3944.0	0.0	-0.32007	-0.21149	
3945.0	0.0	-0.32483	-0.19043	
3946.0	0.0	-0.33765	-0.18054	
3947.0	0.0	-0.34241	-0.1756	
3948.0	0.0	-0.35486	-0.15967	
3949.0	0.0	-0.36035	-0.15344	
3950.0	0.0	-0.37445	-0.15271	
3951.0	0.0	-0.38159	-0.14612	
3952.0	0.0	-0.39844	-0.14246	
3953.0	0.0	-0.40979	-0.13788	
3954.0	0.0	-0.4292	-0.14035	
3955.0	0.0	-0.44202	-0.14685	
3956.0	0.0	-0.4628	-0.1441	
3957.0	0.0	-0.47635	-0.15875	
3958.0	0.0	-0.49686	-0.16571	
3959.0	0.0	-0.50903	-0.17578	
3960.0	0.0	-0.52826	-0.18878	
3961.0	0.0	-0.5387	-0.18237	
3962.0	0.0	-0.55682	-0.1842	
3963.0	0.0	-0.56543	-0.19281	
3964.0	0.0	-0.58035	-0.19849	
3965.0	0.0	-0.58612	-0.21405	
3966.0	0.0	-0.60049	-0.22192	
3967.0	0.0	-0.60553	-0.23639	
3968.0	0.0	-0.61816	-0.24939	
3969.0	0.0	-0.62141	-0.2699	
3970.0	0.0	-0.6308	-0.28125	
3971.0	0.0	-0.6319	-0.2959	
3972.0	0.0	-0.64105	-0.30688	
3973.0	0.0	-0.6427	-0.32208	
3974.0	0.0	-0.65277	-0.33014	
3975.0	0.0	-0.65442	-0.32996	
3976.0	0.0	-0.66394	-0.34589	
3977.0	0.0	-0.66302	-0.35129	
3978.0	0.0	-0.67017	-0.3631	
3979.0	0.0	-0.66797	-0.37683	
3980.0	0.0	-0.67365	-0.4032	
3981.0	0.0	-0.66943	-0.41803	
3982.0	0.0	-0.67291	-0.43597	
3983.0	0.0	-0.6676	-0.45905	
3984.0	0.0	-0.66907	-0.48779	
3985.0	0.0	-0.66174	-0.51416	
3986.0	0.0	-0.66119	-0.53119	
3987.0	0.0	-0.65149	-0.53957	
3988.0	0.0	-0.64948	-0.55627	
3989.0	0.0	-0.63867	-0.57312	
3990.0	0.0	-0.63538	-0.58813	
3991.0	0.0	-0.62274	-0.59766	
3992.0	0.0	-0.61707	-0.61148	
3993.0	0.0	-0.60352	-0.62347	
3994.0	0.0	-0.59775	-0.63226	
3995.0	0.0	-0.58447	-0.63556	
3996.0	0.0	-0.58081	-0.63831	
3997.0	0.0	-0.56927	-0.63831	
3998.0	0.0	-0.56653	-0.63702	
3999.0	0.0	-0.55499	-0.63217	
4000.0	0.0	-0.55115	-0.62878	
4001.0	0.0	-0.53833	-0.62183	
4002.0	0.0	-0.53101	-0.61835	
4003.0	0.0	-0.51306	-0.61414	
4004.0	0.0	-0.50171	-0.61597	
4005.0	0.0	-0.48157	-0.61707	
4006.0	0.0	-0.47003	-0.61922	
4007.0	0.0	-0.45264	-0.6167	
4008.0	0.0	-0.44385	-0.61377	
4009.0	0.0	-0.42828	-0.60645	
4010.0	0.0	-0.42096	-0.60223	
4011.0	0.0	-0.40576	-0.59784	
4012.0	0.0	-0.39844	-0.59985	
4013.0	0.0	-0.38214	-0.60251	
4014.0	0.0	-0.3739	-0.60718	
4015.0	0.0	-0.35706	-0.60443	
4016.0	0.0	-0.34937	-0.60425	
4017.0	0.0	-0.33453	-0.59857	
4018.0	0.0	-0.32959	-0.5929	
4019.0	0.0	-0.31769	-0.58612	
4020.0	0.0	-0.31531	-0.58429	
4021.0	0.0	-0.30505	-0.58136	
4022.0	0.0	-0.30212	-0.58356	
4023.0	0.0	-0.29059	-0.58301	
4024.0	0.0	-0.28711	-0.58429	
4025.0	0.0	-0.27667	-0.58447	
4026.0	0.0	-0.27539	-0.58502	
4027.0	0.0	-0.26807	-0.58978	
4028.0	0.0	-0.27045	-0.59399	
4029.0	0.0	-0.2699	-0.59692	
4030.0	0.0	-0.28088	-0.5994	
4031.0	0.0	-0.28711	-0.60004	
4032.0	0.0	-0.30249	-0.6026	
4033.0	0.0	-0.30981	-0.60114	
4034.0	0.0	-0.32373	-0.60379	
4035.0	0.0	-0.33032	-0.60663	
4036.0	0.0	-0.3457	-0.62384	
4037.0	0.0	-0.35559	-0.63519	
4038.0	0.0	-0.375	-0.64728	
4039.0	0.0	-0.388	-0.6546	
4040.0	0.0	-0.40869	-0.65808	
4041.0	0.0	-0.42059	-0.65845	
4042.0	0.0	-0.43982	-0.6601	
4043.0	0.0	-0.45026	-0.65634	
4044.0	0.0	-0.46619	-0.65442	
4045.0	0.0	-0.46875	-0.65497	
4046.0	0.0	-0.47534	-0.65881	
4047.0	0.0	-0.46802	-0.66119	
4048.0	0.0	-0.46582	-0.66467	
4049.0	0.0	-0.45319	-0.66348	
4050.0	0.0	-0.44788	-0.66357	
4051.0	0.0	-0.43268	-0.65845	
4052.0	0.0	-0.42517	-0.65479	
4053.0	0.0	-0.40979	-0.65076	
4054.0	0.0	-0.40393	-0.64893	
4055.0	0.0	-0.3913	-0.64453	
4056.0	0.0	-0.39056	-0.64911	
4057.0	0.0	-0.38416	-0.64801	
4058.0	0.0	-0.38947	-0.65057	
4059.0	0.0	-0.388	-0.65094	
4060.0	0.0	-0.39661	-0.65314	
4061.0	0.0	-0.39532	-0.64874	
4062.0	0.0	-0.4032	-0.64517	
4063.0	0.0	-0.40247	-0.63574	
4064.0	0.0	-0.41144	-0.63171	
4065.0	0.0	-0.40851	-0.62466	
4066.0	0.0	-0.41217	-0.62054	
4067.0	0.0	-0.40082	-0.61212	
4068.0	0.0	-0.39844	-0.60306	
4069.0	0.0	-0.38599	-0.59033	
4070.0	0.0	-0.38416	-0.57697	
4071.0	0.0	-0.37354	-0.56259	
4072.0	0.0	-0.37482	-0.55371	
4073.0	0.0	-0.36987	-0.53906	
4074.0	0.0	-0.37564	-0.52679	
4075.0	0.0	-0.37207	-0.51343	
4076.0	0.0	-0.3761	-0.50464	
4077.0	0.0	-0.36987	-0.49219	
4078.0	0.0	-0.36914	-0.48578	
4079.0	0.0	-0.35742	-0.47974	
4080.0	0.0	-0.35266	-0.47864	
4081.0	0.0	-0.33655	-0.47424	
4082.0	0.0	-0.32703	-0.46866	
4083.0	0.0	-0.30688	-0.46014	
4084.0	0.0	-0.29388	-0.45374	
4085.0	0.0	-0.2688	-0.44513	
4086.0	0.0	-0.25195	-0.4389	
4087.0	0.0	-0.2243	-0.4292	
4088.0	0.0	-0.20471	-0.42224	
4089.0	0.0	-0.17596	-0.41071	
4090.0	0.0	-0.15564	-0.40576	
4091.0	0.0	-0.12598	-0.39844	
4092.0	0.0	-0.104	-0.39551	
4093.0	0.0	-0.07324	-0.38763	
4094.0	0.0	-0.05182	-0.38782	
4095.0	0.0	-0.02124	-0.37903	
4096.0	0.0	0.00055	-0.37921	
4097.0	0.0	0.02948	-0.36786	
4098.0	0.0	0.04889	-0.37074	
4099.0	0.0	0.0769	-0.36763	
4100.0	0.0	0.09595	-0.35687	
4101.0	0.0	0.12231	-0.35632	
4102.0	0.0	0.13806	-0.35596	
4103.0	0.0	0.1604	-0.34662	
4104.0	0.0	0.17102	-0.35431	
4105.0	0.0	0.18805	-0.34662	
4106.0	0.0	0.19299	-0.34698	
4107.0	0.0	0.20618	-0.34204	
4108.0	0.0	0.20892	-0.3349	
4109.0	0.0	0.21826	-0.33582	
4110.0	0.0	0.2168	-0.3241	
4111.0	0.0	0.22412	-0.32758	
4112.0	0.0	0.22229	-0.32465	
4113.0	0.0	0.22943	-0.31055	
4114.0	0.0	0.22595	-0.31183	
4115.0	0.0	0.23035	-0.30945	
4116.0	0.0	0.22412	-0.30817	
4117.0	0.0	0.22778	-0.30359	
4118.0	0.0	0.22284	-0.29791	
4119.0	0.0	0.23035	-0.28564	
4120.0	0.0	0.23035	-0.28473	
4121.0	0.0	0.2417	-0.27301	
4122.0	0.0	0.245	-0.27017	
4123.0	0.0	0.25653	-0.26147	
4124.0	0.0	0.25854	-0.2514	
4125.0	0.0	0.26917	-0.24554	
4126.0	0.0	0.2699	-0.24628	
4127.0	0.0	0.28033	-0.23914	
4128.0	0.0	0.28143	-0.23419	
4129.0	0.0	0.29297	-0.22705	
4130.0	0.0	0.29517	-0.22137	
4131.0	0.0	0.3056	-0.21478	
4132.0	0.0	0.30542	-0.21698	
4133.0	0.0	0.31311	-0.21167	
4134.0	0.0	0.30725	-0.21121	
4135.0	0.0	0.3067	-0.20581	
4136.0	0.0	0.29443	-0.19995	
4137.0	0.0	0.28894	-0.19263	
4138.0	0.0	0.27393	-0.18677	
4139.0	0.0	0.26697	-0.17834	
4140.0	0.0	0.24939	-0.18164	
4141.0	0.0	0.23877	-0.18036	
4142.0	0.0	0.21698	-0.17432	
4143.0	0.0	0.20471	-0.17175	
4144.0	0.0	0.18237	-0.16443	
4145.0	0.0	0.16992	-0.15454	
4146.0	0.0	0.15015	-0.14905	
4147.0	0.0	0.14117	-0.13934	
4148.0	0.0	0.12708	-0.13385	
4149.0	0.0	0.12323	-0.12744	
4150.0	0.0	0.11389	-0.12708	
4151.0	0.0	0.11591	-0.12653	
4152.0	0.0	0.10876	-0.13019	
4153.0	0.0	0.11353	-0.13037	
4154.0	0.0	0.11005	-0.13293	
4155.0	0.0	0.11865	-0.13257	
4156.0	0.0	0.11938	-0.13531	
4157.0	0.0	0.13184	-0.13623	
4158.0	0.0	0.1366	-0.14154	
4159.0	0.0	0.15234	-0.14447	
4160.0	0.0	0.16003	-0.14777	
4161.0	0.0	0.17725	-0.14667	
4162.0	0.0	0.18475	-0.14813	
4163.0	0.0	0.20105	-0.14594	
4164.0	0.0	0.20819	-0.14465	
4165.0	0.0	0.22504	-0.14136	
4166.0	0.0	0.23108	-0.14209	
4167.0	0.0	0.24683	-0.13916	
4168.0	0.0	0.25342	-0.14008	
4169.0	0.0	0.26898	-0.1322	
4170.0	0.0	0.27466	-0.13202	
4171.0	0.0	0.28931	-0.1236	
4172.0	0.0	0.2959	-0.12177	
4173.0	0.0	0.31201	-0.11774	
4174.0	0.0	0.31897	-0.10812	
4175.0	0.0	0.33398	-0.1073	
4176.0	0.0	0.33911	-0.10181	
4177.0	0.0	0.35413	-0.0954	
4178.0	0.0	0.35962	-0.08954	
4179.0	0.0	0.37463	-0.0835	
4180.0	0.0	0.37976	-0.07343	
4181.0	0.0	0.39551	-0.07269	
4182.0	0.0	0.401	-0.06812	
4183.0	0.0	0.41638	-0.06006	
4184.0	0.0	0.42151	-0.05804	
4185.0	0.0	0.43579	-0.04962	
4186.0	0.0	0.43982	-0.04083	
4187.0	0.0	0.4541	-0.03369	
4188.0	0.0	0.45795	-0.02802	
4189.0	0.0	0.47241	-0.01428	
4190.0	0.0	0.47717	-0.0108	
4191.0	0.0	0.49182	0.00073	
4192.0	0.0	0.49603	0.00513	
4193.0	0.0	0.51123	0.01611	
4194.0	0.0	0.51544	0.02527	
4195.0	0.0	0.53027	0.03589	
4196.0	0.0	0.53577	0.04596	
4197.0	0.0	0.55243	0.05438	
4198.0	0.0	0.55957	0.06464	
4199.0	0.0	0.57605	0.07819	
4200.0	0.0	0.58008	0.08203	
4201.0	0.0	0.59326	0.09888	
4202.0	0.0	0.59546	0.10565	
4203.0	0.0	0.60754	0.12213	
4204.0	0.0	0.61267	0.12451	
4205.0	0.0	0.62915	0.13403	
4206.0	0.0	0.63483	0.13879	
4207.0	0.0	0.65131	0.14502	
4208.0	0.0	0.65771	0.15271	
4209.0	0.0	0.67621	0.16223	
4210.0	0.0	0.68555	0.16882	
4211.0	0.0	0.70459	0.18274	
4212.0	0.0	0.71484	0.18182	
4213.0	0.0	0.73608	0.18457	
4214.0	0.0	0.74707	0.19666	
4215.0	0.0	0.76776	0.19757	
4216.0	0.0	0.7793	0.20764	
4217.0	0.0	0.80072	0.2135	
4218.0	0.0	0.81189	0.22632	
4219.0	0.0	0.83313	0.23291	
4220.0	0.0	0.84338	0.24536	
4221.0	0.0	0.86426	0.2569	
4222.0	0.0	0.87341	0.26541	
4223.0	0.0	0.89429	0.27539	
4224.0	0.0	0.90308	0.27576	
4225.0	0.0	0.92139	0.28894	
4226.0	0.0	0.92725	0.3056	
4227.0	0.0	0.94281	0.31915	
4228.0	0.0	0.94574	0.323	
4229.0	0.0	0.95947	0.33728	
4230.0	0.0	0.95947	0.34753	
4231.0	0.0	0.96899	0.36365	
