# OpenSignals Text File Format. Version 1
# {"00:07:80:4B:29:5A": {"position": 0, "device": "biosignalsplux", "device name": "00:07:80:4B:29:5A", "device connection": "/dev/tty.biosignalsplux-Bluetoot", "sampling rate": 100, "resolution": [16, 16], "firmware version": 776, "comments": "", "keywords": "", "mode": 0, "sync interval": 2, "date": "2022-5-9", "time": "12:19:58.347", "channels": [1, 2], "sensor": ["RESPIRATION", "RESPIRATION"], "label": ["CH1", "CH2"], "column": ["nSeq", "DI", "CH1", "CH2"], "special": [{"SpO2": [80, 40, 5, 4, 3, 3]}, {"SpO2": [80, 40, 5, 4, 3, 3]}, {"SpO2": [80, 40, 5, 4, 3, 3]}, {"SpO2": [80, 40, 5, 4, 3, 3]}, {"SpO2": [80, 40, 5, 4, 3, 3]}, {"SpO2": [80, 40, 5, 4, 3, 3]}, {"SpO2": [80, 40, 5, 4, 3, 3]}, {"SpO2": [80, 40, 5, 4, 3, 3]}], "digital IO": [0, 1], "sleeve color": ["red", ""], "convertedValues": 1}}
# EndOfHeader
0.0	0.0	1.30627	-0.54767	
1.0	0.0	1.28833	-0.55261	
2.0	0.0	1.2843	-0.53613	
3.0	0.0	1.26489	-0.53284	
4.0	0.0	1.25647	-0.51746	
5.0	0.0	1.23486	-0.51672	
6.0	0.0	1.22461	-0.49713	
7.0	0.0	1.2019	-0.50052	
8.0	0.0	1.19055	-0.49072	
9.0	0.0	1.16455	-0.49146	
10.0	0.0	1.15137	-0.48376	
11.0	0.0	1.12646	-0.48761	
12.0	0.0	1.11475	-0.48505	
13.0	0.0	1.09241	-0.48651	
14.0	0.0	1.07739	-0.48239	
15.0	0.0	1.0481	-0.48157	
16.0	0.0	1.02905	-0.47223	
17.0	0.0	0.99829	-0.4736	
18.0	0.0	0.98108	-0.465	
19.0	0.0	0.95618	-0.47076	
20.0	0.0	0.94482	-0.46417	
21.0	0.0	0.92175	-0.46985	
22.0	0.0	0.9093	-0.46234	
23.0	0.0	0.88403	-0.4693	
24.0	0.0	0.86792	-0.45676	
25.0	0.0	0.83954	-0.45996	
26.0	0.0	0.82251	-0.44312	
27.0	0.0	0.79614	-0.43982	
28.0	0.0	0.78149	-0.42609	
29.0	0.0	0.75842	-0.4205	
30.0	0.0	0.74707	-0.40759	
31.0	0.0	0.72656	-0.40942	
32.0	0.0	0.71814	-0.39771	
33.0	0.0	0.69983	-0.4108	
34.0	0.0	0.69379	-0.40906	
35.0	0.0	0.67822	-0.41327	
36.0	0.0	0.67493	-0.4173	
37.0	0.0	0.66138	-0.42554	
38.0	0.0	0.65955	-0.42004	
39.0	0.0	0.64526	-0.42032	
40.0	0.0	0.6427	-0.40498	
41.0	0.0	0.63098	-0.40704	
42.0	0.0	0.63098	-0.39551	
43.0	0.0	0.61908	-0.40182	
44.0	0.0	0.62109	-0.3847	
45.0	0.0	0.6123	-0.39679	
46.0	0.0	0.6156	-0.38434	
47.0	0.0	0.60571	-0.38214	
48.0	0.0	0.60736	-0.37234	
49.0	0.0	0.59436	-0.36438	
50.0	0.0	0.5918	-0.34113	
51.0	0.0	0.57642	-0.3349	
52.0	0.0	0.57092	-0.323	
53.0	0.0	0.55371	-0.31567	
54.0	0.0	0.54785	-0.30762	
55.0	0.0	0.5321	-0.31329	
56.0	0.0	0.52808	-0.30817	
57.0	0.0	0.51233	-0.31494	
58.0	0.0	0.50793	-0.30441	
59.0	0.0	0.49219	-0.30194	
60.0	0.0	0.48615	-0.28052	
61.0	0.0	0.4671	-0.27209	
62.0	0.0	0.45685	-0.25269	
63.0	0.0	0.43359	-0.23126	
64.0	0.0	0.41895	-0.19537	
65.0	0.0	0.39496	-0.16461	
66.0	0.0	0.37885	-0.13916	
67.0	0.0	0.35413	-0.10126	
68.0	0.0	0.34094	-0.07196	
69.0	0.0	0.31824	-0.05054	
70.0	0.0	0.30688	-0.02435	
71.0	0.0	0.2829	-0.00824	
72.0	0.0	0.26697	0.02142	
73.0	0.0	0.2395	0.04065	
74.0	0.0	0.22375	0.06189	
75.0	0.0	0.19922	0.08496	
76.0	0.0	0.18787	0.09485	
77.0	0.0	0.16864	0.10858	
78.0	0.0	0.16296	0.11407	
79.0	0.0	0.14685	0.09833	
80.0	0.0	0.14209	0.09924	
81.0	0.0	0.12305	0.08203	
82.0	0.0	0.11279	0.07489	
83.0	0.0	0.0921	0.06134	
84.0	0.0	0.08203	0.05347	
85.0	0.0	0.06116	0.03241	
86.0	0.0	0.04834	0.01465	
87.0	0.0	0.02032	-0.0033	
88.0	0.0	-0.00055	-0.00934	
89.0	0.0	-0.03003	-0.03076	
90.0	0.0	-0.04871	-0.05475	
91.0	0.0	-0.07288	-0.06775	
92.0	0.0	-0.08295	-0.0835	
93.0	0.0	-0.10034	-0.1106	
94.0	0.0	-0.1062	-0.13445	
95.0	0.0	-0.12268	-0.16095	
96.0	0.0	-0.12964	-0.17377	
97.0	0.0	-0.14648	-0.19153	
98.0	0.0	-0.15143	-0.20764	
99.0	0.0	-0.16553	-0.23511	
100.0	0.0	-0.16699	-0.24976	
101.0	0.0	-0.17743	-0.27173	
102.0	0.0	-0.17633	-0.28693	
103.0	0.0	-0.18695	-0.31915	
104.0	0.0	-0.18823	-0.34021	
105.0	0.0	-0.20361	-0.3717	
106.0	0.0	-0.20874	-0.39368	
107.0	0.0	-0.22888	-0.42572	
108.0	0.0	-0.24188	-0.44522	
109.0	0.0	-0.271	-0.4715	
110.0	0.0	-0.29608	-0.48019	
111.0	0.0	-0.33875	-0.49457	
112.0	0.0	-0.37885	-0.49091	
113.0	0.0	-0.43213	-0.49127	
114.0	0.0	-0.47571	-0.47223	
115.0	0.0	-0.52698	-0.47479	
116.0	0.0	-0.56561	-0.44733	
117.0	0.0	-0.60919	-0.44641	
118.0	0.0	-0.64014	-0.42911	
119.0	0.0	-0.67896	-0.40668	
120.0	0.0	-0.70459	-0.40411	
121.0	0.0	-0.73883	-0.40063	
122.0	0.0	-0.75916	-0.37463	
123.0	0.0	-0.78882	-0.38086	
124.0	0.0	-0.80695	-0.3576	
125.0	0.0	-0.83716	-0.37372	
126.0	0.0	-0.85748	-0.35339	
127.0	0.0	-0.88953	-0.35596	
128.0	0.0	-0.90948	-0.36475	
129.0	0.0	-0.93906	-0.36218	
130.0	0.0	-0.95618	-0.3587	
131.0	0.0	-0.98355	-0.34589	
132.0	0.0	-0.99994	-0.3219	
133.0	0.0	-1.02786	-0.32666	
134.0	0.0	-1.04443	-0.30048	
135.0	0.0	-1.07034	-0.27759	
136.0	0.0	-1.08289	-0.26111	
137.0	0.0	-1.10358	-0.24664	
138.0	0.0	-1.10518	-0.21368	
139.0	0.0	-1.11237	-0.19977	
140.0	0.0	-1.09836	-0.16933	
141.0	0.0	-1.08939	-0.14648	
142.0	0.0	-1.05569	-0.09631	
143.0	0.0	-1.02374	-0.07654	
144.0	0.0	-0.97119	-0.05273	
145.0	0.0	-0.9283	-0.04193	
146.0	0.0	-0.87415	-0.00476	
147.0	0.0	-0.83057	-0.01263	
148.0	0.0	-0.77142	0.00092	
149.0	0.0	-0.71851	-0.00696	
150.0	0.0	-0.64655	0.00293	
151.0	0.0	-0.57843	-0.02618	
152.0	0.0	-0.49805	-0.03076	
153.0	0.0	-0.43195	-0.039	
154.0	0.0	-0.35669	-0.00714	
155.0	0.0	-0.28821	-0.01483	
156.0	0.0	-0.20508	-0.0097	
157.0	0.0	-0.12854	-0.00311	
158.0	0.0	-0.04175	-0.00092	
159.0	0.0	0.03625	0.00385	
160.0	0.0	0.12268	0.02527	
161.0	0.0	0.19739	0.04193	
162.0	0.0	0.27539	0.08679	
163.0	0.0	0.34241	0.11238	
164.0	0.0	0.40961	0.15839	
165.0	0.0	0.46326	0.19135	
166.0	0.0	0.52112	0.24261	
167.0	0.0	0.56305	0.28564	
168.0	0.0	0.61304	0.34021	
169.0	0.0	0.64746	0.38251	
170.0	0.0	0.69342	0.42773	
171.0	0.0	0.72638	0.44531	
172.0	0.0	0.76794	0.46783	
173.0	0.0	0.79431	0.4671	
174.0	0.0	0.8313	0.4585	
175.0	0.0	0.85547	0.40265	
176.0	0.0	0.88953	0.32446	
177.0	0.0	0.9082	0.21204	
178.0	0.0	0.93347	0.08807	
179.0	0.0	0.94043	-0.01355	
180.0	0.0	0.95746	-0.11664	
181.0	0.0	0.96021	-0.20654	
182.0	0.0	0.97559	-0.29407	
183.0	0.0	0.97925	-0.36694	
184.0	0.0	0.9928	-0.43744	
185.0	0.0	0.98767	-0.50629	
186.0	0.0	0.98584	-0.55609	
187.0	0.0	0.95874	-0.5993	
188.0	0.0	0.93457	-0.60205	
189.0	0.0	0.89172	-0.57916	
190.0	0.0	0.86005	-0.51288	
191.0	0.0	0.82141	-0.42975	
192.0	0.0	0.80219	-0.31531	
193.0	0.0	0.78003	-0.21259	
194.0	0.0	0.7793	-0.0954	
195.0	0.0	0.77271	0.00769	
196.0	0.0	0.78296	0.11243	
197.0	0.0	0.7804	0.18567	
198.0	0.0	0.79047	0.26514	
199.0	0.0	0.78607	0.33417	
200.0	0.0	0.7923	0.39587	
201.0	0.0	0.78406	0.44202	
202.0	0.0	0.78845	0.49713	
203.0	0.0	0.7782	0.5321	
204.0	0.0	0.78094	0.57019	
205.0	0.0	0.76904	0.58777	
206.0	0.0	0.76923	0.60388	
207.0	0.0	0.75348	0.60791	
208.0	0.0	0.74908	0.60791	
209.0	0.0	0.73096	0.57788	
210.0	0.0	0.72546	0.55096	
211.0	0.0	0.70972	0.50647	
212.0	0.0	0.70844	0.45721	
213.0	0.0	0.69434	0.38672	
214.0	0.0	0.6925	0.32465	
215.0	0.0	0.67896	0.24792	
216.0	0.0	0.68079	0.16571	
217.0	0.0	0.67328	0.07562	
218.0	0.0	0.68152	0.00311	
219.0	0.0	0.67896	-0.07434	
220.0	0.0	0.69104	-0.13074	
221.0	0.0	0.68939	-0.18604	
222.0	0.0	0.70093	-0.2049	
223.0	0.0	0.6991	-0.24408	
224.0	0.0	0.71063	-0.25195	
225.0	0.0	0.70825	-0.25891	
226.0	0.0	0.71924	-0.24683	
227.0	0.0	0.71741	-0.25424	
228.0	0.0	0.72913	-0.23328	
229.0	0.0	0.72876	-0.22906	
230.0	0.0	0.74011	-0.21167	
231.0	0.0	0.74048	-0.21204	
232.0	0.0	0.75256	-0.1897	
233.0	0.0	0.75256	-0.20856	
234.0	0.0	0.76465	-0.20178	
235.0	0.0	0.76208	-0.21661	
236.0	0.0	0.77197	-0.22559	
237.0	0.0	0.76904	-0.24188	
238.0	0.0	0.77856	-0.26111	
239.0	0.0	0.77362	-0.284	
240.0	0.0	0.78223	-0.28967	
241.0	0.0	0.77856	-0.30176	
242.0	0.0	0.7879	-0.31183	
243.0	0.0	0.78442	-0.3219	
244.0	0.0	0.79468	-0.31989	
245.0	0.0	0.79285	-0.33572	
246.0	0.0	0.80365	-0.32593	
247.0	0.0	0.802	-0.32428	
248.0	0.0	0.81226	-0.30597	
249.0	0.0	0.80823	-0.29736	
250.0	0.0	0.81592	-0.27264	
251.0	0.0	0.80933	-0.26074	
252.0	0.0	0.81519	-0.22742	
253.0	0.0	0.80731	-0.20911	
254.0	0.0	0.81226	-0.17267	
255.0	0.0	0.8031	-0.15161	
256.0	0.0	0.80713	-0.11115	
257.0	0.0	0.79688	-0.07782	
258.0	0.0	0.7998	-0.04706	
259.0	0.0	0.78882	-0.02728	
260.0	0.0	0.79156	0.00623	
261.0	0.0	0.78076	0.03552	
262.0	0.0	0.78333	0.05347	
263.0	0.0	0.77234	0.07874	
264.0	0.0	0.7749	0.09485	
265.0	0.0	0.76392	0.11151	
266.0	0.0	0.76318	0.13202	
267.0	0.0	0.74744	0.14685	
268.0	0.0	0.74597	0.16864	
269.0	0.0	0.73462	0.16388	
270.0	0.0	0.73718	0.18402	
271.0	0.0	0.72583	0.2038	
272.0	0.0	0.7262	0.22412	
273.0	0.0	0.71118	0.23758	
274.0	0.0	0.70789	0.25772	
275.0	0.0	0.69525	0.27045	
276.0	0.0	0.69781	0.29901	
277.0	0.0	0.68958	0.31036	
278.0	0.0	0.69543	0.33481	
279.0	0.0	0.68884	0.34772	
280.0	0.0	0.69415	0.37024	
281.0	0.0	0.68555	0.38123	
282.0	0.0	0.68811	0.40375	
283.0	0.0	0.67822	0.40979	
284.0	0.0	0.68097	0.4292	
285.0	0.0	0.67126	0.43597	
286.0	0.0	0.67474	0.44733	
287.0	0.0	0.6665	0.45575	
288.0	0.0	0.67035	0.46948	
289.0	0.0	0.66211	0.46893	
290.0	0.0	0.6676	0.47791	
291.0	0.0	0.66046	0.47095	
292.0	0.0	0.66577	0.47534	
293.0	0.0	0.65735	0.45831	
294.0	0.0	0.66357	0.45575	
295.0	0.0	0.65497	0.4444	
296.0	0.0	0.65991	0.44	
297.0	0.0	0.65112	0.42206	
298.0	0.0	0.65479	0.41986	
299.0	0.0	0.64673	0.40247	
300.0	0.0	0.65112	0.40155	
301.0	0.0	0.64233	0.38855	
302.0	0.0	0.64783	0.39642	
303.0	0.0	0.64014	0.38525	
304.0	0.0	0.646	0.39478	
305.0	0.0	0.63959	0.39514	
306.0	0.0	0.64618	0.41309	
307.0	0.0	0.63904	0.41821	
308.0	0.0	0.64526	0.43542	
309.0	0.0	0.63757	0.44275	
310.0	0.0	0.64233	0.46472	
311.0	0.0	0.63391	0.47644	
312.0	0.0	0.63867	0.4986	
313.0	0.0	0.62952	0.50153	
314.0	0.0	0.63391	0.52753	
315.0	0.0	0.62512	0.53522	
316.0	0.0	0.62952	0.55664	
317.0	0.0	0.62109	0.5658	
318.0	0.0	0.62585	0.58429	
319.0	0.0	0.61743	0.59052	
320.0	0.0	0.62256	0.60965	
321.0	0.0	0.61469	0.62787	
322.0	0.0	0.61963	0.64636	
323.0	0.0	0.6123	0.66138	
324.0	0.0	0.61743	0.68866	
325.0	0.0	0.60791	0.69543	
326.0	0.0	0.61047	0.72437	
327.0	0.0	0.59912	0.73865	
328.0	0.0	0.60187	0.76355	
329.0	0.0	0.59473	0.78186	
330.0	0.0	0.60132	0.80566	
331.0	0.0	0.59253	0.81848	
332.0	0.0	0.59326	0.83752	
333.0	0.0	0.58081	0.85437	
334.0	0.0	0.58136	0.87286	
335.0	0.0	0.57275	0.89301	
336.0	0.0	0.58118	0.91434	
337.0	0.0	0.57898	0.92908	
338.0	0.0	0.58813	0.94592	
339.0	0.0	0.58374	0.96112	
340.0	0.0	0.59216	0.98456	
341.0	0.0	0.58667	0.98822	
342.0	0.0	0.59399	1.01184	
343.0	0.0	0.5896	1.01367	
344.0	0.0	0.59766	1.03491	
345.0	0.0	0.59253	1.04077	
346.0	0.0	0.60095	1.06567	
347.0	0.0	0.59546	1.06915	
348.0	0.0	0.60315	1.08856	
349.0	0.0	0.59839	1.08527	
350.0	0.0	0.60608	1.10413	
351.0	0.0	0.60205	1.09589	
352.0	0.0	0.60974	1.1217	
353.0	0.0	0.60278	1.12189	
354.0	0.0	0.60938	1.13525	
355.0	0.0	0.60223	1.13342	
356.0	0.0	0.60645	1.14844	
357.0	0.0	0.59711	1.15649	
358.0	0.0	0.60205	1.16583	
359.0	0.0	0.59326	1.17004	
360.0	0.0	0.59875	1.1825	
361.0	0.0	0.59033	1.18835	
362.0	0.0	0.59528	1.2041	
363.0	0.0	0.58667	1.19861	
364.0	0.0	0.59125	1.21655	
365.0	0.0	0.58264	1.20996	
366.0	0.0	0.58722	1.22095	
367.0	0.0	0.57825	1.2182	
368.0	0.0	0.58154	1.22076	
369.0	0.0	0.57166	1.21289	
370.0	0.0	0.57422	1.21948	
371.0	0.0	0.56323	1.21472	
372.0	0.0	0.5658	1.21907	
373.0	0.0	0.55444	1.21326	
374.0	0.0	0.55737	1.21967	
375.0	0.0	0.54749	1.21582	
376.0	0.0	0.54932	1.22992	
377.0	0.0	0.53979	1.22443	
378.0	0.0	0.54272	1.23926	
379.0	0.0	0.53265	1.23907	
380.0	0.0	0.5354	1.2464	
381.0	0.0	0.52625	1.25153	
382.0	0.0	0.52917	1.26324	
383.0	0.0	0.51947	1.26562	
384.0	0.0	0.52441	1.27606	
385.0	0.0	0.51599	1.27661	
386.0	0.0	0.5202	1.28577	
387.0	0.0	0.5105	1.28101	
388.0	0.0	0.51178	1.29803	
389.0	0.0	0.50171	1.28595	
390.0	0.0	0.50684	1.30005	
391.0	0.0	0.50098	1.29163	
392.0	0.0	0.50665	1.2973	
393.0	0.0	0.49768	1.29456	
394.0	0.0	0.50024	1.30865	
395.0	0.0	0.48999	1.29474	
396.0	0.0	0.49365	1.30499	
397.0	0.0	0.48816	1.29364	
398.0	0.0	0.49658	1.29529	
399.0	0.0	0.49219	1.27972	
400.0	0.0	0.49951	1.27515	
401.0	0.0	0.49219	1.26123	
402.0	0.0	0.49658	1.24823	
403.0	0.0	0.48779	1.23175	
404.0	0.0	0.49146	1.22205	
405.0	0.0	0.48322	1.19916	
406.0	0.0	0.48651	1.19563	
407.0	0.0	0.47754	1.1792	
408.0	0.0	0.47974	1.17957	
409.0	0.0	0.46985	1.16528	
410.0	0.0	0.47168	1.16785	
411.0	0.0	0.46106	1.16016	
412.0	0.0	0.46216	1.16656	
413.0	0.0	0.45007	1.16034	
414.0	0.0	0.44916	1.17682	
415.0	0.0	0.43433	1.17371	
416.0	0.0	0.43066	1.17426	
417.0	0.0	0.41455	1.17993	
418.0	0.0	0.41016	1.19019	
419.0	0.0	0.39404	1.19202	
420.0	0.0	0.39075	1.20117	
421.0	0.0	0.3761	1.20557	
422.0	0.0	0.37317	1.22662	
423.0	0.0	0.35889	1.22882	
424.0	0.0	0.35687	1.23926	
425.0	0.0	0.34167	1.24402	
426.0	0.0	0.33929	1.26416	
427.0	0.0	0.32556	1.26233	
428.0	0.0	0.32318	1.27766	
429.0	0.0	0.31	1.27954	
430.0	0.0	0.30762	1.29657	
431.0	0.0	0.29407	1.28925	
432.0	0.0	0.29224	1.30554	
433.0	0.0	0.27832	1.30261	
434.0	0.0	0.27667	1.31067	
435.0	0.0	0.26312	1.30408	
436.0	0.0	0.26257	1.31525	
437.0	0.0	0.24939	1.31049	
438.0	0.0	0.24866	1.31708	
439.0	0.0	0.23529	1.31277	
440.0	0.0	0.23474	1.32147	
441.0	0.0	0.22192	1.32092	
442.0	0.0	0.22192	1.33356	
443.0	0.0	0.20947	1.3304	
444.0	0.0	0.20911	1.34052	
445.0	0.0	0.19629	1.33191	
446.0	0.0	0.19647	1.34363	
447.0	0.0	0.1842	1.33475	
448.0	0.0	0.18329	1.34619	
449.0	0.0	0.17029	1.33704	
450.0	0.0	0.16956	1.34729	
451.0	0.0	0.15765	1.34088	
452.0	0.0	0.15894	1.34656	
453.0	0.0	0.14868	1.3407	
454.0	0.0	0.14795	1.35553	
455.0	0.0	0.1344	1.34875	
456.0	0.0	0.13312	1.35114	
457.0	0.0	0.12085	1.34454	
458.0	0.0	0.12341	1.35205	
459.0	0.0	0.11462	1.34583	
460.0	0.0	0.11938	1.3515	
461.0	0.0	0.11005	1.33704	
462.0	0.0	0.11407	1.34674	
463.0	0.0	0.10565	1.34033	
464.0	0.0	0.11041	1.34546	
465.0	0.0	0.10236	1.33978	
466.0	0.0	0.10712	1.35571	
467.0	0.0	0.09888	1.35461	
468.0	0.0	0.10327	1.36505	
469.0	0.0	0.0932	1.35956	
470.0	0.0	0.09668	1.37091	
471.0	0.0	0.08752	1.35965	
472.0	0.0	0.09045	1.37512	
473.0	0.0	0.0813	1.36633	
474.0	0.0	0.0835	1.36102	
475.0	0.0	0.07214	1.36176	
476.0	0.0	0.07233	1.37677	
477.0	0.0	0.06134	1.36377	
478.0	0.0	0.06226	1.37366	
479.0	0.0	0.05035	1.36487	
480.0	0.0	0.05109	1.37	
481.0	0.0	0.0401	1.35965	
482.0	0.0	0.04248	1.3689	
483.0	0.0	0.03278	1.36249	
484.0	0.0	0.03589	1.37109	
485.0	0.0	0.02673	1.35883	
486.0	0.0	0.03149	1.3623	
487.0	0.0	0.02454	1.35205	
488.0	0.0	0.03058	1.34363	
489.0	0.0	0.0249	1.32147	
490.0	0.0	0.03259	1.31506	
491.0	0.0	0.0293	1.28375	
492.0	0.0	0.03809	1.26929	
493.0	0.0	0.03644	1.23486	
494.0	0.0	0.04852	1.21381	
495.0	0.0	0.05054	1.17755	
496.0	0.0	0.06592	1.15668	
497.0	0.0	0.07068	1.12866	
498.0	0.0	0.08789	1.12299	
499.0	0.0	0.09302	1.10742	
500.0	0.0	0.11023	1.10541	
501.0	0.0	0.11426	1.09973	
502.0	0.0	0.1311	1.11584	
503.0	0.0	0.13586	1.12408	
504.0	0.0	0.15143	1.13965	
505.0	0.0	0.15546	1.15082	
506.0	0.0	0.17084	1.17517	
507.0	0.0	0.17468	1.18323	
508.0	0.0	0.18823	1.20465	
509.0	0.0	0.18988	1.20868	
510.0	0.0	0.20142	1.22369	
511.0	0.0	0.2027	1.22498	
512.0	0.0	0.2168	1.2345	
513.0	0.0	0.21753	1.22424	
514.0	0.0	0.22723	1.22278	
515.0	0.0	0.22302	1.2052	
516.0	0.0	0.22961	1.20081	
517.0	0.0	0.22559	1.17188	
518.0	0.0	0.23474	1.16048	
519.0	0.0	0.23529	1.12427	
520.0	0.0	0.24756	1.10468	
521.0	0.0	0.24792	1.0675	
522.0	0.0	0.25928	1.047	
523.0	0.0	0.26001	1.01459	
524.0	0.0	0.27301	1.00195	
525.0	0.0	0.27466	0.97192	
526.0	0.0	0.28821	0.95801	
527.0	0.0	0.29077	0.93475	
528.0	0.0	0.30377	0.91388	
529.0	0.0	0.30579	0.90088	
530.0	0.0	0.31824	0.9007	
531.0	0.0	0.31952	0.89465	
532.0	0.0	0.33234	0.8909	
533.0	0.0	0.33344	0.88641	
534.0	0.0	0.3457	0.88989	
535.0	0.0	0.3446	0.8736	
536.0	0.0	0.35449	0.88477	
537.0	0.0	0.35156	0.88293	
538.0	0.0	0.36035	0.88916	
539.0	0.0	0.35614	0.87817	
540.0	0.0	0.36273	0.88916	
541.0	0.0	0.35797	0.88184	
542.0	0.0	0.36548	0.88879	
543.0	0.0	0.36255	0.87268	
544.0	0.0	0.37097	0.8833	
545.0	0.0	0.36768	0.87762	
546.0	0.0	0.37701	0.88495	
547.0	0.0	0.37372	0.88586	
548.0	0.0	0.38086	0.88898	
549.0	0.0	0.37646	0.88797	
550.0	0.0	0.38342	0.89648	
551.0	0.0	0.37793	0.88504	
552.0	0.0	0.3847	0.89355	
553.0	0.0	0.37939	0.89026	
554.0	0.0	0.38599	0.89941	
555.0	0.0	0.38123	0.88513	
556.0	0.0	0.38782	0.89447	
557.0	0.0	0.38196	0.88531	
558.0	0.0	0.38855	0.88586	
559.0	0.0	0.38324	0.8822	
560.0	0.0	0.38965	0.87964	
561.0	0.0	0.38525	0.86407	
562.0	0.0	0.39203	0.87323	
563.0	0.0	0.38745	0.86407	
564.0	0.0	0.39404	0.86737	
565.0	0.0	0.39038	0.85199	
566.0	0.0	0.39661	0.86627	
567.0	0.0	0.39038	0.85327	
568.0	0.0	0.39423	0.86224	
569.0	0.0	0.38525	0.85345	
570.0	0.0	0.3891	0.85382	
571.0	0.0	0.38434	0.84613	
572.0	0.0	0.39368	0.8562	
573.0	0.0	0.38873	0.84467	
574.0	0.0	0.39111	0.84503	
575.0	0.0	0.38159	0.84174	
576.0	0.0	0.38251	0.85236	
577.0	0.0	0.37555	0.84302	
578.0	0.0	0.38489	0.83514	
579.0	0.0	0.38342	0.83661	
580.0	0.0	0.39404	0.82379	
581.0	0.0	0.39185	0.81628	
582.0	0.0	0.40027	0.82306	
583.0	0.0	0.39716	0.80786	
584.0	0.0	0.40576	0.80182	
585.0	0.0	0.4032	0.78479	
586.0	0.0	0.41162	0.77376	
587.0	0.0	0.40851	0.76465	
588.0	0.0	0.41675	0.76611	
589.0	0.0	0.41382	0.75439	
590.0	0.0	0.42114	0.75531	
591.0	0.0	0.41858	0.737	
592.0	0.0	0.42664	0.73975	
593.0	0.0	0.42371	0.72253	
594.0	0.0	0.43176	0.72382	
595.0	0.0	0.42773	0.70532	
596.0	0.0	0.43469	0.70953	
597.0	0.0	0.42957	0.69946	
598.0	0.0	0.43542	0.6958	
599.0	0.0	0.42993	0.67365	
600.0	0.0	0.43616	0.67932	
601.0	0.0	0.4303	0.6687	
602.0	0.0	0.43616	0.66339	
603.0	0.0	0.43066	0.65369	
604.0	0.0	0.43835	0.66193	
605.0	0.0	0.43396	0.65497	
606.0	0.0	0.44092	0.65657	
607.0	0.0	0.43726	0.65657	
608.0	0.0	0.44458	0.66083	
609.0	0.0	0.43872	0.66138	
610.0	0.0	0.44513	0.67401	
611.0	0.0	0.43872	0.6741	
612.0	0.0	0.44348	0.68903	
613.0	0.0	0.43726	0.68756	
614.0	0.0	0.44238	0.70697	
615.0	0.0	0.43652	0.70789	
616.0	0.0	0.44092	0.71906	
617.0	0.0	0.43433	0.72894	
618.0	0.0	0.43909	0.74432	
619.0	0.0	0.43268	0.75018	
620.0	0.0	0.43762	0.76135	
621.0	0.0	0.4314	0.7674	
622.0	0.0	0.43616	0.77673	
623.0	0.0	0.42993	0.77856	
624.0	0.0	0.43478	0.79248	
625.0	0.0	0.42902	0.79413	
626.0	0.0	0.43469	0.80347	
627.0	0.0	0.42883	0.8042	
628.0	0.0	0.43433	0.82178	
629.0	0.0	0.4281	0.81738	
630.0	0.0	0.4314	0.83112	
631.0	0.0	0.42297	0.83235	
632.0	0.0	0.42554	0.84265	
633.0	0.0	0.41931	0.8465	
634.0	0.0	0.42737	0.85693	
635.0	0.0	0.42371	0.86115	
636.0	0.0	0.42773	0.87469	
637.0	0.0	0.4173	0.87744	
638.0	0.0	0.41766	0.89044	
639.0	0.0	0.40979	0.89374	
640.0	0.0	0.41602	0.90912	
641.0	0.0	0.41418	0.91438	
642.0	0.0	0.42334	0.91534	
643.0	0.0	0.42004	0.92834	
644.0	0.0	0.4259	0.93365	
645.0	0.0	0.42114	0.93933	
646.0	0.0	0.42645	0.94849	
647.0	0.0	0.42151	0.94043	
648.0	0.0	0.42737	0.94885	
649.0	0.0	0.42279	0.9483	
650.0	0.0	0.42883	0.95361	
651.0	0.0	0.42261	0.94391	
652.0	0.0	0.4281	0.95105	
653.0	0.0	0.42316	0.94281	
654.0	0.0	0.42938	0.94006	
655.0	0.0	0.42554	0.93777	
656.0	0.0	0.43213	0.93713	
657.0	0.0	0.42627	0.93347	
658.0	0.0	0.4314	0.93384	
659.0	0.0	0.4248	0.9245	
660.0	0.0	0.42883	0.93494	
661.0	0.0	0.42188	0.9212	
662.0	0.0	0.4259	0.92578	
663.0	0.0	0.41913	0.91553	
664.0	0.0	0.42297	0.92926	
665.0	0.0	0.41565	0.92834	
666.0	0.0	0.42041	0.93549	
667.0	0.0	0.41455	0.92853	
668.0	0.0	0.41931	0.94373	
669.0	0.0	0.41382	0.94043	
670.0	0.0	0.41876	0.94977	
671.0	0.0	0.41364	0.96121	
672.0	0.0	0.41785	0.97064	
673.0	0.0	0.41089	0.9765	
674.0	0.0	0.41418	0.98822	
675.0	0.0	0.40649	0.9873	
676.0	0.0	0.41052	1.00891	
677.0	0.0	0.40356	1.01395	
678.0	0.0	0.40723	1.03088	
679.0	0.0	0.40063	1.02612	
680.0	0.0	0.4043	1.04718	
681.0	0.0	0.39771	1.05322	
682.0	0.0	0.40173	1.06018	
683.0	0.0	0.39551	1.07281	
684.0	0.0	0.40045	1.08618	
685.0	0.0	0.39423	1.07886	
686.0	0.0	0.3988	1.10394	
687.0	0.0	0.39258	1.10486	
688.0	0.0	0.39716	1.11804	
689.0	0.0	0.39221	1.12317	
690.0	0.0	0.39752	1.14001	
691.0	0.0	0.39185	1.14734	
692.0	0.0	0.39697	1.15448	
693.0	0.0	0.39185	1.15887	
694.0	0.0	0.39771	1.17188	
695.0	0.0	0.39148	1.17188	
696.0	0.0	0.39404	1.18616	
697.0	0.0	0.38599	1.18652	
698.0	0.0	0.38855	1.20264	
699.0	0.0	0.38397	1.19788	
700.0	0.0	0.39056	1.21692	
701.0	0.0	0.38672	1.2171	
702.0	0.0	0.38928	1.229	
703.0	0.0	0.37866	1.22937	
704.0	0.0	0.37976	1.2464	
705.0	0.0	0.37354	1.24251	
706.0	0.0	0.38086	1.25592	
707.0	0.0	0.37939	1.26196	
708.0	0.0	0.38818	1.26984	
709.0	0.0	0.38599	1.26819	
710.0	0.0	0.3924	1.28284	
711.0	0.0	0.38818	1.27423	
712.0	0.0	0.39404	1.28284	
713.0	0.0	0.39038	1.27881	
714.0	0.0	0.39697	1.28137	
715.0	0.0	0.39331	1.27515	
716.0	0.0	0.3999	1.28265	
717.0	0.0	0.39587	1.27277	
718.0	0.0	0.40192	1.26746	
719.0	0.0	0.39807	1.26288	
720.0	0.0	0.40613	1.25555	
721.0	0.0	0.40356	1.24384	
722.0	0.0	0.41016	1.23413	
723.0	0.0	0.40576	1.21545	
724.0	0.0	0.41162	1.21069	
725.0	0.0	0.40723	1.19257	
726.0	0.0	0.41125	1.18707	
727.0	0.0	0.40521	1.16858	
728.0	0.0	0.40869	1.16473	
729.0	0.0	0.4032	1.15283	
730.0	0.0	0.40759	1.15503	
731.0	0.0	0.40302	1.14386	
732.0	0.0	0.40796	1.15009	
733.0	0.0	0.40356	1.14606	
734.0	0.0	0.40869	1.14771	
735.0	0.0	0.4043	1.14166	
736.0	0.0	0.40887	1.1424	
737.0	0.0	0.40393	1.15063	
738.0	0.0	0.40833	1.16144	
739.0	0.0	0.40247	1.15649	
740.0	0.0	0.40649	1.16913	
741.0	0.0	0.40063	1.16748	
742.0	0.0	0.40466	1.18323	
743.0	0.0	0.39917	1.18341	
744.0	0.0	0.4032	1.18286	
745.0	0.0	0.39734	1.19238	
746.0	0.0	0.4021	1.20538	
747.0	0.0	0.39771	1.20209	
748.0	0.0	0.4032	1.20996	
749.0	0.0	0.39954	1.2041	
750.0	0.0	0.40613	1.21564	
751.0	0.0	0.4021	1.20667	
752.0	0.0	0.40796	1.21875	
753.0	0.0	0.40393	1.21216	
754.0	0.0	0.40942	1.21875	
755.0	0.0	0.40521	1.21088	
756.0	0.0	0.41016	1.21802	
757.0	0.0	0.40576	1.20593	
758.0	0.0	0.40961	1.21875	
759.0	0.0	0.4032	1.20557	
760.0	0.0	0.40594	1.20465	
761.0	0.0	0.39917	1.19513	
762.0	0.0	0.4021	1.19563	
763.0	0.0	0.39478	1.17847	
764.0	0.0	0.39734	1.16675	
765.0	0.0	0.38965	1.15082	
766.0	0.0	0.39001	1.14111	
767.0	0.0	0.38159	1.11584	
768.0	0.0	0.38159	1.10687	
769.0	0.0	0.37061	1.08929	
770.0	0.0	0.36877	1.08508	
771.0	0.0	0.35651	1.07446	
772.0	0.0	0.35596	1.07629	
773.0	0.0	0.34698	1.06549	
774.0	0.0	0.3479	1.06842	
775.0	0.0	0.336	1.06622	
776.0	0.0	0.33105	1.08087	
777.0	0.0	0.31677	1.07538	
778.0	0.0	0.31311	1.09204	
779.0	0.0	0.30341	1.09369	
780.0	0.0	0.30469	1.10101	
781.0	0.0	0.29846	1.10999	
782.0	0.0	0.29919	1.12244	
783.0	0.0	0.29114	1.11548	
784.0	0.0	0.29187	1.12463	
785.0	0.0	0.28455	1.12683	
786.0	0.0	0.28601	1.13379	
787.0	0.0	0.27869	1.12299	
788.0	0.0	0.2807	1.13306	
789.0	0.0	0.27283	1.11749	
790.0	0.0	0.27393	1.13068	
791.0	0.0	0.26532	1.12958	
792.0	0.0	0.2655	1.1402	
793.0	0.0	0.25708	1.14185	
794.0	0.0	0.25781	1.15997	
795.0	0.0	0.24866	1.16272	
796.0	0.0	0.24756	1.17407	
797.0	0.0	0.23547	1.18231	
798.0	0.0	0.23328	1.18945	
799.0	0.0	0.21973	1.20392	
800.0	0.0	0.21533	1.22168	
801.0	0.0	0.20178	1.22937	
802.0	0.0	0.19702	1.2453	
803.0	0.0	0.18439	1.25043	
804.0	0.0	0.18054	1.26178	
805.0	0.0	0.16827	1.26855	
806.0	0.0	0.16406	1.27954	
807.0	0.0	0.15051	1.27972	
808.0	0.0	0.14703	1.28577	
809.0	0.0	0.13367	1.28632	
810.0	0.0	0.12927	1.29785	
811.0	0.0	0.11536	1.29858	
812.0	0.0	0.11115	1.30701	
813.0	0.0	0.09741	1.30646	
814.0	0.0	0.0921	1.32184	
815.0	0.0	0.07855	1.31726	
816.0	0.0	0.07434	1.31854	
817.0	0.0	0.06189	1.32312	
818.0	0.0	0.05804	1.33264	
819.0	0.0	0.04578	1.32587	
820.0	0.0	0.0434	1.3429	
821.0	0.0	0.03186	1.33594	
822.0	0.0	0.03003	1.34088	
823.0	0.0	0.01831	1.33997	
824.0	0.0	0.01611	1.34381	
825.0	0.0	0.00458	1.34491	
826.0	0.0	0.00266	1.35059	
827.0	0.0	-0.00906	1.34399	
828.0	0.0	-0.01154	1.3515	
829.0	0.0	-0.02307	1.35168	
830.0	0.0	-0.0249	1.3559	
831.0	0.0	-0.03662	1.34912	
832.0	0.0	-0.03845	1.35626	
833.0	0.0	-0.04944	1.34985	
834.0	0.0	-0.05182	1.35846	
835.0	0.0	-0.06335	1.35297	
836.0	0.0	-0.06628	1.36194	
837.0	0.0	-0.078	1.35645	
838.0	0.0	-0.0802	1.36469	
839.0	0.0	-0.09045	1.35846	
840.0	0.0	-0.08972	1.36322	
841.0	0.0	-0.09943	1.35608	
842.0	0.0	-0.10071	1.37036	
843.0	0.0	-0.11261	1.35901	
844.0	0.0	-0.11407	1.36523	
845.0	0.0	-0.12396	1.36176	
846.0	0.0	-0.12195	1.37311	
847.0	0.0	-0.12799	1.36487	
848.0	0.0	-0.12469	1.36871	
849.0	0.0	-0.13	1.35608	
850.0	0.0	-0.12598	1.35791	
851.0	0.0	-0.13037	1.35379	
852.0	0.0	-0.12488	1.3559	
853.0	0.0	-0.12799	1.34363	
854.0	0.0	-0.12213	1.34692	
855.0	0.0	-0.12543	1.33612	
856.0	0.0	-0.11902	1.33813	
857.0	0.0	-0.12305	1.32587	
858.0	0.0	-0.11719	1.33118	
859.0	0.0	-0.11957	1.32019	
860.0	0.0	-0.11279	1.32074	
861.0	0.0	-0.11426	1.31378	
862.0	0.0	-0.1073	1.31543	
863.0	0.0	-0.11041	1.30334	
864.0	0.0	-0.1051	1.30334	
865.0	0.0	-0.10977	1.29547	
866.0	0.0	-0.10547	1.29309	
867.0	0.0	-0.11041	1.27972	
868.0	0.0	-0.10602	1.26709	
869.0	0.0	-0.10968	1.26508	
870.0	0.0	-0.10364	1.26306	
871.0	0.0	-0.10583	1.24878	
872.0	0.0	-0.09814	1.24237	
873.0	0.0	-0.09979	1.23834	
874.0	0.0	-0.0921	1.23285	
875.0	0.0	-0.09357	1.22058	
876.0	0.0	-0.08734	1.22223	
877.0	0.0	-0.08917	1.20044	
878.0	0.0	-0.0824	1.21106	
879.0	0.0	-0.08386	1.19073	
880.0	0.0	-0.07672	1.19751	
881.0	0.0	-0.078	1.18799	
882.0	0.0	-0.06976	1.19238	
883.0	0.0	-0.07031	1.1792	
884.0	0.0	-0.06244	1.18103	
885.0	0.0	-0.06226	1.16437	
886.0	0.0	-0.05347	1.17151	
887.0	0.0	-0.05365	1.15192	
888.0	0.0	-0.04449	1.15869	
889.0	0.0	-0.04431	1.13141	
890.0	0.0	-0.03479	1.14093	
891.0	0.0	-0.03369	1.12299	
892.0	0.0	-0.02454	1.11713	
893.0	0.0	-0.02344	1.09937	
894.0	0.0	-0.01328	1.0968	
895.0	0.0	-0.0119	1.07428	
896.0	0.0	-0.0022	1.05963	
897.0	0.0	-0.00037	1.05048	
898.0	0.0	0.00989	1.04297	
899.0	0.0	0.00989	1.02356	
900.0	0.0	0.01904	1.01312	
901.0	0.0	0.01904	0.995	
902.0	0.0	0.02985	0.98584	
903.0	0.0	0.03333	0.96368	
904.0	0.0	0.04468	0.95984	
905.0	0.0	0.04541	0.94189	
906.0	0.0	0.05273	0.93494	
907.0	0.0	0.05219	0.91992	
908.0	0.0	0.06189	0.9093	
909.0	0.0	0.06482	0.89502	
910.0	0.0	0.07819	0.89447	
911.0	0.0	0.08313	0.8703	
912.0	0.0	0.09595	0.86572	
913.0	0.0	0.09998	0.84613	
914.0	0.0	0.11279	0.82379	
915.0	0.0	0.11865	0.80969	
916.0	0.0	0.13147	0.80365	
917.0	0.0	0.13678	0.78186	
918.0	0.0	0.14941	0.75952	
919.0	0.0	0.15381	0.74561	
920.0	0.0	0.16626	0.73608	
921.0	0.0	0.17084	0.71704	
922.0	0.0	0.18365	0.7077	
923.0	0.0	0.18732	0.69745	
924.0	0.0	0.2005	0.67621	
925.0	0.0	0.20508	0.66595	
926.0	0.0	0.2168	0.65845	
927.0	0.0	0.21844	0.64801	
928.0	0.0	0.22815	0.63867	
929.0	0.0	0.22925	0.62421	
930.0	0.0	0.23749	0.6145	
931.0	0.0	0.23694	0.6037	
932.0	0.0	0.245	0.60187	
933.0	0.0	0.24481	0.58868	
934.0	0.0	0.25342	0.58905	
935.0	0.0	0.25378	0.57733	
936.0	0.0	0.26331	0.57697	
937.0	0.0	0.2644	0.56799	
938.0	0.0	0.27246	0.56012	
939.0	0.0	0.27264	0.55902	
940.0	0.0	0.28015	0.56085	
941.0	0.0	0.27905	0.54858	
942.0	0.0	0.28693	0.55316	
943.0	0.0	0.28564	0.54602	
944.0	0.0	0.29297	0.5484	
945.0	0.0	0.29224	0.53888	
946.0	0.0	0.29919	0.54474	
947.0	0.0	0.2981	0.53925	
948.0	0.0	0.30579	0.53613	
949.0	0.0	0.30524	0.52606	
950.0	0.0	0.31219	0.53796	
951.0	0.0	0.31091	0.52313	
952.0	0.0	0.3186	0.53302	
953.0	0.0	0.31714	0.52185	
954.0	0.0	0.32373	0.52716	
955.0	0.0	0.32227	0.52551	
956.0	0.0	0.32886	0.52643	
957.0	0.0	0.32776	0.51581	
958.0	0.0	0.33435	0.51324	
959.0	0.0	0.33398	0.51343	
960.0	0.0	0.34094	0.51929	
961.0	0.0	0.33893	0.51141	
962.0	0.0	0.34351	0.5072	
963.0	0.0	0.34021	0.50903	
964.0	0.0	0.34589	0.50702	
965.0	0.0	0.3457	0.50391	
966.0	0.0	0.35413	0.49969	
967.0	0.0	0.35266	0.4975	
968.0	0.0	0.35651	0.49823	
969.0	0.0	0.35083	0.49237	
970.0	0.0	0.35339	0.49347	
971.0	0.0	0.35083	0.49251	
972.0	0.0	0.35889	0.4964	
973.0	0.0	0.36053	0.48926	
974.0	0.0	0.36914	0.49251	
975.0	0.0	0.36841	0.49182	
976.0	0.0	0.37573	0.49374	
977.0	0.0	0.37537	0.49251	
978.0	0.0	0.38269	0.49878	
979.0	0.0	0.38232	0.49109	
980.0	0.0	0.38928	0.4975	
981.0	0.0	0.38892	0.49438	
982.0	0.0	0.39496	0.50061	
983.0	0.0	0.39368	0.48871	
984.0	0.0	0.39954	0.49823	
985.0	0.0	0.3988	0.48761	
986.0	0.0	0.40466	0.49054	
987.0	0.0	0.4043	0.492	
988.0	0.0	0.41125	0.49695	
989.0	0.0	0.40906	0.48651	
990.0	0.0	0.41345	0.48596	
991.0	0.0	0.41052	0.48431	
992.0	0.0	0.41382	0.49072	
993.0	0.0	0.40961	0.48523	
994.0	0.0	0.41235	0.49036	
995.0	0.0	0.40759	0.48615	
996.0	0.0	0.40979	0.49402	
997.0	0.0	0.4054	0.49512	
998.0	0.0	0.40814	0.50684	
999.0	0.0	0.40466	0.51141	
1000.0	0.0	0.40796	0.51855	
1001.0	0.0	0.40466	0.52386	
1002.0	0.0	0.40833	0.52936	
1003.0	0.0	0.4043	0.54291	
1004.0	0.0	0.40796	0.55005	
1005.0	0.0	0.4032	0.55884	
1006.0	0.0	0.40576	0.57422	
1007.0	0.0	0.40082	0.57733	
1008.0	0.0	0.40356	0.59088	
1009.0	0.0	0.39844	0.58813	
1010.0	0.0	0.40063	0.61047	
1011.0	0.0	0.39624	0.61615	
1012.0	0.0	0.39899	0.62421	
1013.0	0.0	0.39496	0.62787	
1014.0	0.0	0.3988	0.64215	
1015.0	0.0	0.39478	0.64142	
1016.0	0.0	0.3988	0.65369	
1017.0	0.0	0.39624	0.64948	
1018.0	0.0	0.40137	0.65652	
1019.0	0.0	0.39844	0.66412	
1020.0	0.0	0.40283	0.67474	
1021.0	0.0	0.3999	0.67273	
1022.0	0.0	0.40393	0.68079	
1023.0	0.0	0.401	0.68079	
1024.0	0.0	0.40356	0.68994	
1025.0	0.0	0.3999	0.69305	
1026.0	0.0	0.40247	0.69928	
1027.0	0.0	0.3999	0.69324	
1028.0	0.0	0.40723	0.70258	
1029.0	0.0	0.40887	0.6958	
1030.0	0.0	0.41602	0.69891	
1031.0	0.0	0.41382	0.698	
1032.0	0.0	0.41547	0.70312	
1033.0	0.0	0.41089	0.68958	
1034.0	0.0	0.41675	0.70221	
1035.0	0.0	0.41675	0.68683	
1036.0	0.0	0.42645	0.69067	
1037.0	0.0	0.4281	0.68884	
1038.0	0.0	0.43524	0.69122	
1039.0	0.0	0.43396	0.6936	
1040.0	0.0	0.44019	0.69727	
1041.0	0.0	0.43945	0.69159	
1042.0	0.0	0.44604	0.70345	
1043.0	0.0	0.44495	0.69727	
1044.0	0.0	0.45117	0.70477	
1045.0	0.0	0.44916	0.70404	
1046.0	0.0	0.45447	0.71375	
1047.0	0.0	0.45264	0.70312	
1048.0	0.0	0.45886	0.71887	
1049.0	0.0	0.45776	0.70999	
1050.0	0.0	0.46399	0.71613	
1051.0	0.0	0.46289	0.70532	
1052.0	0.0	0.46802	0.71375	
1053.0	0.0	0.46582	0.7034	
1054.0	0.0	0.46912	0.71155	
1055.0	0.0	0.46582	0.69946	
1056.0	0.0	0.46875	0.69708	
1057.0	0.0	0.4649	0.6991	
1058.0	0.0	0.4671	0.70312	
1059.0	0.0	0.46326	0.69855	
1060.0	0.0	0.46582	0.69653	
1061.0	0.0	0.46252	0.70587	
1062.0	0.0	0.46619	0.71594	
1063.0	0.0	0.46362	0.71503	
1064.0	0.0	0.46802	0.71906	
1065.0	0.0	0.46545	0.72217	
1066.0	0.0	0.46948	0.74066	
1067.0	0.0	0.4671	0.74332	
1068.0	0.0	0.47168	0.7467	
1069.0	0.0	0.4682	0.75494	
1070.0	0.0	0.47241	0.76813	
1071.0	0.0	0.4682	0.77216	
1072.0	0.0	0.47168	0.77472	
1073.0	0.0	0.46838	0.7804	
1074.0	0.0	0.47095	0.7749	
1075.0	0.0	0.46729	0.77472	
1076.0	0.0	0.46912	0.78864	
1077.0	0.0	0.4649	0.78113	
1078.0	0.0	0.46692	0.8009	
1079.0	0.0	0.46179	0.79285	
1080.0	0.0	0.46307	0.7972	
1081.0	0.0	0.45776	0.80072	
1082.0	0.0	0.45923	0.82013	
1083.0	0.0	0.45465	0.81976	
1084.0	0.0	0.45593	0.82397	
1085.0	0.0	0.45209	0.83057	
1086.0	0.0	0.4563	0.83551	
1087.0	0.0	0.45428	0.8335	
1088.0	0.0	0.45923	0.8291	
1089.0	0.0	0.4574	0.81335	
1090.0	0.0	0.46106	0.815	
1091.0	0.0	0.45923	0.78003	
1092.0	0.0	0.46619	0.76447	
1093.0	0.0	0.46912	0.73352	
1094.0	0.0	0.47681	0.70294	
1095.0	0.0	0.47498	0.67493	
1096.0	0.0	0.47552	0.6535	
1097.0	0.0	0.46765	0.63281	
1098.0	0.0	0.46582	0.61432	
1099.0	0.0	0.46106	0.60571	
1100.0	0.0	0.46326	0.61249	
1101.0	0.0	0.45996	0.61414	
1102.0	0.0	0.46033	0.63007	
1103.0	0.0	0.45264	0.65277	
1104.0	0.0	0.44952	0.68225	
1105.0	0.0	0.43872	0.71246	
1106.0	0.0	0.43433	0.74487	
1107.0	0.0	0.42334	0.77069	
1108.0	0.0	0.41968	0.79761	
1109.0	0.0	0.40979	0.83093	
1110.0	0.0	0.40668	0.85785	
1111.0	0.0	0.39716	0.8681	
1112.0	0.0	0.39404	0.87451	
1113.0	0.0	0.38599	0.86975	
1114.0	0.0	0.38599	0.8606	
1115.0	0.0	0.37976	0.84375	
1116.0	0.0	0.37994	0.82269	
1117.0	0.0	0.37427	0.7912	
1118.0	0.0	0.37537	0.76465	
1119.0	0.0	0.37024	0.72821	
1120.0	0.0	0.37097	0.68848	
1121.0	0.0	0.36493	0.66541	
1122.0	0.0	0.3653	0.63611	
1123.0	0.0	0.36108	0.60461	
1124.0	0.0	0.36292	0.59454	
1125.0	0.0	0.36035	0.58539	
1126.0	0.0	0.36621	0.58923	
1127.0	0.0	0.36694	0.60004	
1128.0	0.0	0.3739	0.62183	
1129.0	0.0	0.37573	0.66229	
1130.0	0.0	0.38269	0.71008	
1131.0	0.0	0.38452	0.75952	
1132.0	0.0	0.39056	0.80988	
1133.0	0.0	0.39093	0.85034	
1134.0	0.0	0.39496	0.88916	
1135.0	0.0	0.39294	0.92102	
1136.0	0.0	0.39661	0.95856	
1137.0	0.0	0.39404	0.97485	
1138.0	0.0	0.39697	1.0014	
1139.0	0.0	0.39331	1.00928	
1140.0	0.0	0.39551	1.00635	
1141.0	0.0	0.39038	1.0014	
1142.0	0.0	0.39038	0.99371	
1143.0	0.0	0.38452	0.95984	
1144.0	0.0	0.38562	0.93915	
1145.0	0.0	0.37994	0.90308	
1146.0	0.0	0.38123	0.86554	
1147.0	0.0	0.37646	0.82471	
1148.0	0.0	0.37903	0.78772	
1149.0	0.0	0.3761	0.74158	
1150.0	0.0	0.38013	0.70807	
1151.0	0.0	0.37793	0.66943	
1152.0	0.0	0.38251	0.64636	
1153.0	0.0	0.38013	0.61176	
1154.0	0.0	0.38196	0.59784	
1155.0	0.0	0.37683	0.58264	
1156.0	0.0	0.37793	0.58923	
1157.0	0.0	0.37463	0.59729	
1158.0	0.0	0.3783	0.62714	
1159.0	0.0	0.37427	0.66083	
1160.0	0.0	0.37207	0.70386	
1161.0	0.0	0.36145	0.75613	
1162.0	0.0	0.35706	0.80511	
1163.0	0.0	0.34863	0.84796	
1164.0	0.0	0.349	0.89355	
1165.0	0.0	0.34552	0.92432	
1166.0	0.0	0.3479	0.95929	
1167.0	0.0	0.34424	0.96826	
1168.0	0.0	0.34406	0.99637	
1169.0	0.0	0.33765	1.00708	
1170.0	0.0	0.33801	1.00653	
1171.0	0.0	0.33398	0.98438	
1172.0	0.0	0.33545	0.95599	
1173.0	0.0	0.33252	0.91663	
1174.0	0.0	0.33545	0.86536	
1175.0	0.0	0.33325	0.81042	
1176.0	0.0	0.33691	0.75027	
1177.0	0.0	0.33563	0.68573	
1178.0	0.0	0.33984	0.62036	
1179.0	0.0	0.33948	0.56213	
1180.0	0.0	0.34277	0.5127	
1181.0	0.0	0.33893	0.46051	
1182.0	0.0	0.33911	0.41913	
1183.0	0.0	0.33142	0.40302	
1184.0	0.0	0.32922	0.38379	
1185.0	0.0	0.3208	0.39331	
1186.0	0.0	0.31787	0.42334	
1187.0	0.0	0.31055	0.44696	
1188.0	0.0	0.30981	0.49841	
1189.0	0.0	0.30286	0.56067	
1190.0	0.0	0.30359	0.62695	
1191.0	0.0	0.29828	0.67841	
1192.0	0.0	0.30121	0.72913	
1193.0	0.0	0.30029	0.76904	
1194.0	0.0	0.30615	0.81281	
1195.0	0.0	0.30927	0.83881	
1196.0	0.0	0.31952	0.86591	
1197.0	0.0	0.32703	0.87415	
1198.0	0.0	0.34167	0.86865	
1199.0	0.0	0.35339	0.85071	
1200.0	0.0	0.3761	0.81281	
1201.0	0.0	0.39954	0.77545	
1202.0	0.0	0.43451	0.71741	
1203.0	0.0	0.46985	0.67145	
1204.0	0.0	0.51288	0.62141	
1205.0	0.0	0.55096	0.57184	
1206.0	0.0	0.59381	0.53613	
1207.0	0.0	0.63062	0.49878	
1208.0	0.0	0.67346	0.48944	
1209.0	0.0	0.70898	0.48193	
1210.0	0.0	0.74707	0.51105	
1211.0	0.0	0.7782	0.55408	
1212.0	0.0	0.81409	0.61707	
1213.0	0.0	0.84174	0.67419	
1214.0	0.0	0.87451	0.73773	
1215.0	0.0	0.90015	0.789	
1216.0	0.0	0.93018	0.83185	
1217.0	0.0	0.95178	0.87854	
1218.0	0.0	0.97778	0.91937	
1219.0	0.0	0.9939	0.95251	
1220.0	0.0	1.01147	0.98053	
1221.0	0.0	1.02063	1.0058	
1222.0	0.0	1.03491	1.02924	
1223.0	0.0	1.04114	1.03802	
1224.0	0.0	1.04883	1.04718	
1225.0	0.0	1.04663	1.0481	
1226.0	0.0	1.0459	1.04993	
1227.0	0.0	1.03491	1.02704	
1228.0	0.0	1.02722	1.01752	
1229.0	0.0	1.01147	0.97888	
1230.0	0.0	0.99792	0.95691	
1231.0	0.0	0.97632	0.91205	
1232.0	0.0	0.95654	0.87891	
1233.0	0.0	0.92834	0.84595	
1234.0	0.0	0.90308	0.81372	
1235.0	0.0	0.86865	0.78662	
1236.0	0.0	0.83569	0.76904	
1237.0	0.0	0.79578	0.75659	
1238.0	0.0	0.75751	0.75201	
1239.0	0.0	0.71411	0.73993	
1240.0	0.0	0.67548	0.74542	
1241.0	0.0	0.63098	0.74304	
1242.0	0.0	0.59253	0.73792	
1243.0	0.0	0.54858	0.73206	
1244.0	0.0	0.50977	0.72949	
1245.0	0.0	0.46582	0.711	
1246.0	0.0	0.42719	0.69873	
1247.0	0.0	0.38342	0.67639	
1248.0	0.0	0.34607	0.66064	
1249.0	0.0	0.30432	0.6319	
1250.0	0.0	0.26898	0.61221	
1251.0	0.0	0.23035	0.57166	
1252.0	0.0	0.19849	0.54016	
1253.0	0.0	0.1637	0.49237	
1254.0	0.0	0.13843	0.4574	
1255.0	0.0	0.11005	0.39075	
1256.0	0.0	0.09082	0.33252	
1257.0	0.0	0.06885	0.28088	
1258.0	0.0	0.05493	0.23181	
1259.0	0.0	0.03662	0.16443	
1260.0	0.0	0.02527	0.11746	
1261.0	0.0	0.01025	0.05841	
1262.0	0.0	0.00073	0.01831	
1263.0	0.0	-0.01282	-0.0152	
1264.0	0.0	-0.02069	-0.02783	
1265.0	0.0	-0.03387	-0.04852	
1266.0	0.0	-0.03992	-0.03607	
1267.0	0.0	-0.05127	-0.0271	
1268.0	0.0	-0.05658	-0.0141	
1269.0	0.0	-0.06647	0.00732	
1270.0	0.0	-0.06976	0.03351	
1271.0	0.0	-0.07892	0.04816	
1272.0	0.0	-0.08093	0.07361	
1273.0	0.0	-0.08862	0.0835	
1274.0	0.0	-0.0899	0.09943	
1275.0	0.0	-0.09668	0.08386	
1276.0	0.0	-0.09851	0.08588	
1277.0	0.0	-0.10602	0.06207	
1278.0	0.0	-0.1084	0.04651	
1279.0	0.0	-0.11572	0.02161	
1280.0	0.0	-0.11719	0.00183	
1281.0	0.0	-0.12177	-0.04395	
1282.0	0.0	-0.11938	-0.06262	
1283.0	0.0	-0.12396	-0.10089	
1284.0	0.0	-0.12415	-0.12323	
1285.0	0.0	-0.1311	-0.13678	
1286.0	0.0	-0.13147	-0.1637	
1287.0	0.0	-0.1355	-0.17651	
1288.0	0.0	-0.13275	-0.18494	
1289.0	0.0	-0.13403	-0.20206	
1290.0	0.0	-0.12927	-0.20306	
1291.0	0.0	-0.12964	-0.21313	
1292.0	0.0	-0.12524	-0.21382	
1293.0	0.0	-0.12433	-0.21313	
1294.0	0.0	-0.11792	-0.21222	
1295.0	0.0	-0.11609	-0.21588	
1296.0	0.0	-0.10895	-0.21497	
1297.0	0.0	-0.10748	-0.22009	
1298.0	0.0	-0.10107	-0.21112	
1299.0	0.0	-0.10107	-0.21899	
1300.0	0.0	-0.09631	-0.22028	
1301.0	0.0	-0.09631	-0.22247	
1302.0	0.0	-0.09045	-0.22321	
1303.0	0.0	-0.0899	-0.22412	
1304.0	0.0	-0.08496	-0.21826	
1305.0	0.0	-0.08569	-0.22321	
1306.0	0.0	-0.08203	-0.21552	
1307.0	0.0	-0.08423	-0.21808	
1308.0	0.0	-0.0824	-0.20801	
1309.0	0.0	-0.08533	-0.21094	
1310.0	0.0	-0.08221	-0.19702	
1311.0	0.0	-0.08276	-0.19061	
1312.0	0.0	-0.07745	-0.17926	
1313.0	0.0	-0.07599	-0.17725	
1314.0	0.0	-0.06921	-0.15875	
1315.0	0.0	-0.06812	-0.15051	
1316.0	0.0	-0.06189	-0.13495	
1317.0	0.0	-0.06116	-0.12598	
1318.0	0.0	-0.05548	-0.11829	
1319.0	0.0	-0.05621	-0.10748	
1320.0	0.0	-0.05145	-0.08789	
1321.0	0.0	-0.052	-0.08844	
1322.0	0.0	-0.04779	-0.06866	
1323.0	0.0	-0.04834	-0.06537	
1324.0	0.0	-0.04376	-0.0509	
1325.0	0.0	-0.04486	-0.04962	
1326.0	0.0	-0.04102	-0.03662	
1327.0	0.0	-0.04175	-0.01776	
1328.0	0.0	-0.03754	-0.00659	
1329.0	0.0	-0.03772	0.00677	
1330.0	0.0	-0.03296	0.01273	
1331.0	0.0	-0.03296	0.02692	
1332.0	0.0	-0.02747	0.03662	
1333.0	0.0	-0.0271	0.04852	
1334.0	0.0	-0.02197	0.06628	
1335.0	0.0	-0.02197	0.0899	
1336.0	0.0	-0.01794	0.10767	
1337.0	0.0	-0.01813	0.12305	
1338.0	0.0	-0.01318	0.14095	
1339.0	0.0	-0.01062	0.13971	
1340.0	0.0	-0.0022	0.15894	
1341.0	0.0	-0.00183	0.16827	
1342.0	0.0	0.0011	0.18677	
1343.0	0.0	-0.00256	0.19446	
1344.0	0.0	-0.00146	0.20233	
1345.0	0.0	-0.00403	0.20618	
1346.0	0.0	0.00037	0.22888	
1347.0	0.0	0.00146	0.24481	
1348.0	0.0	0.00586	0.26385	
1349.0	0.0	0.00366	0.29059	
1350.0	0.0	0.00476	0.32043	
1351.0	0.0	0.00146	0.362	
1352.0	0.0	0.00293	0.39752	
1353.0	0.0	0.0	0.44092	
1354.0	0.0	0.00293	0.49695	
1355.0	0.0	0.00183	0.54346	
1356.0	0.0	0.00861	0.5993	
1357.0	0.0	0.01373	0.64435	
1358.0	0.0	0.02618	0.6958	
1359.0	0.0	0.03406	0.72684	
1360.0	0.0	0.04871	0.76135	
1361.0	0.0	0.05914	0.78387	
1362.0	0.0	0.07288	0.80347	
1363.0	0.0	0.08057	0.80598	
1364.0	0.0	0.0932	0.80891	
1365.0	0.0	0.10107	0.78424	
1366.0	0.0	0.11279	0.76776	
1367.0	0.0	0.1203	0.72675	
1368.0	0.0	0.13239	0.69434	
1369.0	0.0	0.13989	0.64417	
1370.0	0.0	0.15234	0.60187	
1371.0	0.0	0.15985	0.55646	
1372.0	0.0	0.17285	0.52661	
1373.0	0.0	0.18237	0.49429	
1374.0	0.0	0.19739	0.46161	
1375.0	0.0	0.20947	0.44275	
1376.0	0.0	0.22559	0.41986	
1377.0	0.0	0.24023	0.38947	
1378.0	0.0	0.25928	0.38672	
1379.0	0.0	0.27539	0.37354	
1380.0	0.0	0.2959	0.36072	
1381.0	0.0	0.31201	0.36017	
1382.0	0.0	0.3327	0.3576	
1383.0	0.0	0.34827	0.33728	
1384.0	0.0	0.36804	0.33984	
1385.0	0.0	0.38232	0.31824	
1386.0	0.0	0.40063	0.31549	
1387.0	0.0	0.41345	0.29608	
1388.0	0.0	0.43011	0.27393	
1389.0	0.0	0.44202	0.24609	
1390.0	0.0	0.4574	0.21552	
1391.0	0.0	0.46729	0.17798	
1392.0	0.0	0.48102	0.14136	
1393.0	0.0	0.48798	0.10217	
1394.0	0.0	0.49896	0.06665	
1395.0	0.0	0.5061	0.02673	
1396.0	0.0	0.51874	-0.01776	
1397.0	0.0	0.52808	-0.05127	
1398.0	0.0	0.53833	-0.06519	
1399.0	0.0	0.54172	-0.09137	
1400.0	0.0	0.54749	-0.10785	
1401.0	0.0	0.54932	-0.13184	
1402.0	0.0	0.55701	-0.14227	
1403.0	0.0	0.5625	-0.14923	
1404.0	0.0	0.57385	-0.15161	
1405.0	0.0	0.58136	-0.14703	
1406.0	0.0	0.5918	-0.15106	
1407.0	0.0	0.59637	-0.1593	
1408.0	0.0	0.60443	-0.15161	
1409.0	0.0	0.60791	-0.16443	
1410.0	0.0	0.61597	-0.15308	
1411.0	0.0	0.61926	-0.16113	
1412.0	0.0	0.62585	-0.16974	
1413.0	0.0	0.62842	-0.17303	
1414.0	0.0	0.63428	-0.18622	
1415.0	0.0	0.63647	-0.20691	
1416.0	0.0	0.64233	-0.20975	
1417.0	0.0	0.64526	-0.23694	
1418.0	0.0	0.65076	-0.25287	
1419.0	0.0	0.65131	-0.27466	
1420.0	0.0	0.65442	-0.29279	
1421.0	0.0	0.65295	-0.31421	
1422.0	0.0	0.65662	-0.33142	
1423.0	0.0	0.65497	-0.35124	
1424.0	0.0	0.65753	-0.36218	
1425.0	0.0	0.65643	-0.37885	
1426.0	0.0	0.65845	-0.39258	
1427.0	0.0	0.65717	-0.40887	
1428.0	0.0	0.65955	-0.41638	
1429.0	0.0	0.65826	-0.42664	
1430.0	0.0	0.66083	-0.43607	
1431.0	0.0	0.65955	-0.4444	
1432.0	0.0	0.66101	-0.44879	
1433.0	0.0	0.66064	-0.45978	
1434.0	0.0	0.66211	-0.46216	
1435.0	0.0	0.66064	-0.46234	
1436.0	0.0	0.66211	-0.4671	
1437.0	0.0	0.66064	-0.47131	
1438.0	0.0	0.66174	-0.47571	
1439.0	0.0	0.66138	-0.47566	
1440.0	0.0	0.66321	-0.47864	
1441.0	0.0	0.66248	-0.48285	
1442.0	0.0	0.66504	-0.47717	
1443.0	0.0	0.66394	-0.48138	
1444.0	0.0	0.66614	-0.4845	
1445.0	0.0	0.66504	-0.48285	
1446.0	0.0	0.66724	-0.48907	
1447.0	0.0	0.66724	-0.49988	
1448.0	0.0	0.67035	-0.49576	
1449.0	0.0	0.67053	-0.50299	
1450.0	0.0	0.67419	-0.50647	
1451.0	0.0	0.6731	-0.51173	
1452.0	0.0	0.67346	-0.51984	
1453.0	0.0	0.67035	-0.51874	
1454.0	0.0	0.6709	-0.52386	
1455.0	0.0	0.67108	-0.53421	
1456.0	0.0	0.67639	-0.53046	
1457.0	0.0	0.67712	-0.53302	
1458.0	0.0	0.67676	-0.53851	
1459.0	0.0	0.67236	-0.53925	
1460.0	0.0	0.67035	-0.53915	
1461.0	0.0	0.66797	-0.53723	
1462.0	0.0	0.67236	-0.53851	
1463.0	0.0	0.67419	-0.54634	
1464.0	0.0	0.67767	-0.54437	
1465.0	0.0	0.67749	-0.5517	
1466.0	0.0	0.6806	-0.55078	
1467.0	0.0	0.68042	-0.5593	
1468.0	0.0	0.68262	-0.55948	
1469.0	0.0	0.68335	-0.56909	
1470.0	0.0	0.68555	-0.57147	
1471.0	0.0	0.68665	-0.58218	
1472.0	0.0	0.68958	-0.58136	
1473.0	0.0	0.68958	-0.59106	
1474.0	0.0	0.69214	-0.59802	
1475.0	0.0	0.69232	-0.60406	
1476.0	0.0	0.6958	-0.61212	
1477.0	0.0	0.69617	-0.62109	
1478.0	0.0	0.69873	-0.62563	
1479.0	0.0	0.698	-0.63007	
1480.0	0.0	0.69946	-0.63483	
1481.0	0.0	0.69946	-0.63766	
1482.0	0.0	0.70111	-0.64032	
1483.0	0.0	0.70129	-0.64307	
1484.0	0.0	0.70312	-0.6394	
1485.0	0.0	0.70459	-0.63565	
1486.0	0.0	0.70898	-0.63208	
1487.0	0.0	0.71118	-0.62219	
1488.0	0.0	0.71558	-0.61322	
1489.0	0.0	0.71704	-0.59967	
1490.0	0.0	0.72015	-0.58411	
1491.0	0.0	0.71997	-0.57147	
1492.0	0.0	0.7207	-0.55609	
1493.0	0.0	0.71832	-0.54254	
1494.0	0.0	0.71631	-0.51617	
1495.0	0.0	0.71118	-0.50006	
1496.0	0.0	0.70715	-0.46674	
1497.0	0.0	0.70056	-0.45319	
1498.0	0.0	0.69434	-0.4173	
1499.0	0.0	0.685	-0.40009	
1500.0	0.0	0.67548	-0.37143	
1501.0	0.0	0.66248	-0.34332	
1502.0	0.0	0.65057	-0.31	
1503.0	0.0	0.63464	-0.27338	
1504.0	0.0	0.61853	-0.22614	
1505.0	0.0	0.59967	-0.18164	
1506.0	0.0	0.58099	-0.13367	
1507.0	0.0	0.5592	-0.07004	
1508.0	0.0	0.53796	-0.01117	
1509.0	0.0	0.51343	0.05951	
1510.0	0.0	0.48889	0.13513	
1511.0	0.0	0.46143	0.20837	
1512.0	0.0	0.43524	0.28876	
1513.0	0.0	0.40759	0.34735	
1514.0	0.0	0.38196	0.42737	
1515.0	0.0	0.35303	0.48816	
1516.0	0.0	0.32538	0.54327	
1517.0	0.0	0.29517	0.60095	
1518.0	0.0	0.26733	0.64929	
1519.0	0.0	0.23767	0.69745	
1520.0	0.0	0.21039	0.73535	
1521.0	0.0	0.17981	0.78548	
1522.0	0.0	0.15198	0.82649	
1523.0	0.0	0.12122	0.86371	
1524.0	0.0	0.09448	0.90198	
1525.0	0.0	0.06738	0.93457	
1526.0	0.0	0.04211	0.96936	
1527.0	0.0	0.01373	0.99426	
1528.0	0.0	-0.01318	1.02722	
1529.0	0.0	-0.04028	1.05231	
1530.0	0.0	-0.06299	1.07556	
1531.0	0.0	-0.08496	1.09827	
1532.0	0.0	-0.104	1.12299	
1533.0	0.0	-0.12286	1.1391	
1534.0	0.0	-0.13733	1.15686	
1535.0	0.0	-0.15289	1.17645	
1536.0	0.0	-0.16406	1.19055	
1537.0	0.0	-0.17578	1.20538	
1538.0	0.0	-0.18384	1.22003	
1539.0	0.0	-0.19226	1.23907	
1540.0	0.0	-0.19556	1.24969	
1541.0	0.0	-0.20068	1.2605	
1542.0	0.0	-0.20142	1.27954	
1543.0	0.0	-0.20105	1.29071	
1544.0	0.0	-0.19629	1.29108	
1545.0	0.0	-0.19263	1.3147	
1546.0	0.0	-0.18823	1.32349	
1547.0	0.0	-0.18475	1.33759	
1548.0	0.0	-0.18164	1.34711	
1549.0	0.0	-0.18073	1.34656	
1550.0	0.0	-0.17871	1.3537	
1551.0	0.0	-0.17688	1.35571	
1552.0	0.0	-0.17358	1.36487	
1553.0	0.0	-0.17102	1.36615	
1554.0	0.0	-0.16882	1.36816	
1555.0	0.0	-0.16882	1.36377	
1556.0	0.0	-0.16956	1.36853	
1557.0	0.0	-0.17102	1.36816	
1558.0	0.0	-0.1712	1.37137	
1559.0	0.0	-0.17212	1.36926	
1560.0	0.0	-0.17102	1.37238	
1561.0	0.0	-0.16846	1.37219	
1562.0	0.0	-0.16516	1.36487	
1563.0	0.0	-0.1626	1.35956	
1564.0	0.0	-0.1593	1.3634	
1565.0	0.0	-0.15564	1.3597	
1566.0	0.0	-0.15198	1.3645	
1567.0	0.0	-0.14813	1.36285	
1568.0	0.0	-0.14337	1.35406	
1569.0	0.0	-0.13843	1.34235	
1570.0	0.0	-0.13239	1.32001	
1571.0	0.0	-0.12781	1.29529	
1572.0	0.0	-0.12378	1.2659	
1573.0	0.0	-0.12048	1.24127	
1574.0	0.0	-0.117	1.21307	
1575.0	0.0	-0.11353	1.18213	
1576.0	0.0	-0.1095	1.15686	
1577.0	0.0	-0.1062	1.1142	
1578.0	0.0	-0.10181	1.07758	
1579.0	0.0	-0.09814	1.01257	
1580.0	0.0	-0.09448	0.97046	
1581.0	0.0	-0.09082	0.91022	
1582.0	0.0	-0.08789	0.84595	
1583.0	0.0	-0.08533	0.78278	
1584.0	0.0	-0.08203	0.71649	
1585.0	0.0	-0.08057	0.64481	
1586.0	0.0	-0.07837	0.59033	
1587.0	0.0	-0.07727	0.53357	
1588.0	0.0	-0.07507	0.4812	
1589.0	0.0	-0.07452	0.40924	
1590.0	0.0	-0.07306	0.37134	
1591.0	0.0	-0.07324	0.30908	
1592.0	0.0	-0.07178	0.25488	
1593.0	0.0	-0.07086	0.20782	
1594.0	0.0	-0.06757	0.14648	
1595.0	0.0	-0.065	0.08661	
1596.0	0.0	-0.06226	0.04669	
1597.0	0.0	-0.06006	0.00824	
1598.0	0.0	-0.05603	-0.03598	
1599.0	0.0	-0.05182	-0.07654	
1600.0	0.0	-0.04541	-0.11279	
1601.0	0.0	-0.03992	-0.15115	
1602.0	0.0	-0.03397	-0.19052	
1603.0	0.0	-0.02966	-0.2276	
1604.0	0.0	-0.02472	-0.26514	
1605.0	0.0	-0.02032	-0.30469	
1606.0	0.0	-0.01501	-0.34186	
1607.0	0.0	-0.01208	-0.37939	
1608.0	0.0	-0.00879	-0.40503	
1609.0	0.0	-0.00732	-0.44641	
1610.0	0.0	-0.00732	-0.47205	
1611.0	0.0	-0.00769	-0.51416	
1612.0	0.0	-0.00806	-0.54749	
1613.0	0.0	-0.00916	-0.58136	
1614.0	0.0	-0.00989	-0.61267	
1615.0	0.0	-0.01099	-0.63995	
1616.0	0.0	-0.01135	-0.6687	
1617.0	0.0	-0.01135	-0.69873	
1618.0	0.0	-0.00989	-0.72011	
1619.0	0.0	-0.01025	-0.7381	
1620.0	0.0	-0.01044	-0.74506	
1621.0	0.0	-0.01245	-0.75137	
1622.0	0.0	-0.01648	-0.75787	
1623.0	0.0	-0.02051	-0.75714	
1624.0	0.0	-0.0249	-0.75577	
1625.0	0.0	-0.02783	-0.76044	
1626.0	0.0	-0.02747	-0.776	
1627.0	0.0	-0.02527	-0.78607	
1628.0	0.0	-0.02307	-0.80301	
1629.0	0.0	-0.01978	-0.8269	
1630.0	0.0	-0.01685	-0.84906	
1631.0	0.0	-0.01465	-0.87762	
1632.0	0.0	-0.013	-0.91022	
1633.0	0.0	-0.00861	-0.9332	
1634.0	0.0	-0.00385	-0.96075	
1635.0	0.0	0.00146	-0.98438	
1636.0	0.0	0.00659	-1.00626	
1637.0	0.0	0.01263	-1.03033	
1638.0	0.0	0.01868	-1.05231	
1639.0	0.0	0.02289	-1.07108	
1640.0	0.0	0.02582	-1.09085	
1641.0	0.0	0.0249	-1.11777	
1642.0	0.0	0.02271	-1.12802	
1643.0	0.0	0.02197	-1.13965	
1644.0	0.0	0.02179	-1.14363	
1645.0	0.0	0.02454	-1.13919	
1646.0	0.0	0.02783	-1.14084	
1647.0	0.0	0.03021	-1.14784	
1648.0	0.0	0.03186	-1.15933	
1649.0	0.0	0.03131	-1.16917	
1650.0	0.0	0.02875	-1.18172	
1651.0	0.0	0.02563	-1.203	
1652.0	0.0	0.02051	-1.21696	
1653.0	0.0	0.01666	-1.23399	
1654.0	0.0	0.01208	-1.24814	
1655.0	0.0	0.00989	-1.25803	
1656.0	0.0	0.00879	-1.27121	
1657.0	0.0	0.01025	-1.28444	
1658.0	0.0	0.01154	-1.29117	
1659.0	0.0	0.01373	-1.30197	
1660.0	0.0	0.01373	-1.30861	
1661.0	0.0	0.01227	-1.31854	
1662.0	0.0	0.00952	-1.3255	
1663.0	0.0	0.00696	-1.3374	
1664.0	0.0	0.0033	-1.3374	
1665.0	0.0	0.00073	-1.34692	
1666.0	0.0	-0.00238	-1.35091	
1667.0	0.0	-0.00476	-1.35466	
1668.0	0.0	-0.00751	-1.36505	
1669.0	0.0	-0.00879	-1.36606	
1670.0	0.0	-0.01025	-1.37123	
1671.0	0.0	-0.01025	-1.37627	
1672.0	0.0	-0.00934	-1.37549	
1673.0	0.0	-0.00513	-1.38116	
1674.0	0.0	0.00201	-1.37915	
1675.0	0.0	0.01227	-1.38373	
1676.0	0.0	0.02307	-1.3792	
1677.0	0.0	0.03461	-1.37402	
1678.0	0.0	0.04395	-1.36359	
1679.0	0.0	0.05127	-1.34729	
1680.0	0.0	0.05566	-1.33237	
1681.0	0.0	0.06061	-1.30994	
1682.0	0.0	0.06372	-1.28851	
1683.0	0.0	0.06683	-1.26151	
1684.0	0.0	0.06775	-1.22964	
1685.0	0.0	0.06812	-1.19357	
1686.0	0.0	0.065	-1.14665	
1687.0	0.0	0.06299	-1.09451	
1688.0	0.0	0.06134	-1.0481	
1689.0	0.0	0.06152	-0.99335	
1690.0	0.0	0.06244	-0.93219	
1691.0	0.0	0.06519	-0.88239	
1692.0	0.0	0.06848	-0.83839	
1693.0	0.0	0.07306	-0.79504	
1694.0	0.0	0.07764	-0.75046	
1695.0	0.0	0.08295	-0.70532	
1696.0	0.0	0.08698	-0.67017	
1697.0	0.0	0.08862	-0.62851	
1698.0	0.0	0.0899	-0.58447	
1699.0	0.0	0.09375	-0.54089	
1700.0	0.0	0.10107	-0.50793	
1701.0	0.0	0.11426	-0.47443	
1702.0	0.0	0.12964	-0.43048	
1703.0	0.0	0.14832	-0.40979	
1704.0	0.0	0.16864	-0.37866	
1705.0	0.0	0.18988	-0.3468	
1706.0	0.0	0.21387	-0.32684	
1707.0	0.0	0.23932	-0.30121	
1708.0	0.0	0.26624	-0.28596	
1709.0	0.0	0.2926	-0.27466	
1710.0	0.0	0.31677	-0.25342	
1711.0	0.0	0.34131	-0.24792	
1712.0	0.0	0.36658	-0.23405	
1713.0	0.0	0.39368	-0.2309	
1714.0	0.0	0.42224	-0.20416	
1715.0	0.0	0.44971	-0.18732	
1716.0	0.0	0.47534	-0.16608	
1717.0	0.0	0.49731	-0.14154	
1718.0	0.0	0.52039	-0.12872	
1719.0	0.0	0.54199	-0.08826	
1720.0	0.0	0.5636	-0.06061	
1721.0	0.0	0.58521	-0.04303	
1722.0	0.0	0.60608	-0.00385	
1723.0	0.0	0.6264	0.02069	
1724.0	0.0	0.64471	0.03268	
1725.0	0.0	0.66193	0.06628	
1726.0	0.0	0.6795	0.07489	
1727.0	0.0	0.69727	0.09338	
1728.0	0.0	0.71576	0.11151	
1729.0	0.0	0.73553	0.12442	
1730.0	0.0	0.75476	0.14392	
1731.0	0.0	0.77325	0.1485	
1732.0	0.0	0.79193	0.14795	
1733.0	0.0	0.81097	0.16809	
1734.0	0.0	0.8302	0.16864	
1735.0	0.0	0.84961	0.17432	
1736.0	0.0	0.86865	0.19775	
1737.0	0.0	0.88623	0.20361	
1738.0	0.0	0.90491	0.23364	
1739.0	0.0	0.92249	0.2417	
1740.0	0.0	0.94006	0.28015	
1741.0	0.0	0.95508	0.30853	
1742.0	0.0	0.97083	0.33948	
1743.0	0.0	0.98694	0.37317	
1744.0	0.0	1.00342	0.39532	
1745.0	0.0	1.01807	0.43945	
1746.0	0.0	1.03491	0.46902	
1747.0	0.0	1.04974	0.50281	
1748.0	0.0	1.06531	0.53833	
1749.0	0.0	1.08032	0.57385	
1750.0	0.0	1.09662	0.61066	
1751.0	0.0	1.11035	0.64105	
1752.0	0.0	1.125	0.67639	
1753.0	0.0	1.13892	0.7077	
1754.0	0.0	1.15265	0.74066	
1755.0	0.0	1.16455	0.77197	
1756.0	0.0	1.17517	0.80255	
1757.0	0.0	1.18616	0.8313	
1758.0	0.0	1.19568	0.86206	
1759.0	0.0	1.2041	0.89008	
1760.0	0.0	1.21289	0.91681	
1761.0	0.0	1.22021	0.9408	
1762.0	0.0	1.22827	0.96771	
1763.0	0.0	1.23523	0.9884	
1764.0	0.0	1.2431	1.01166	
1765.0	0.0	1.24915	1.03052	
1766.0	0.0	1.25757	1.04517	
1767.0	0.0	1.2627	1.06677	
1768.0	0.0	1.26855	1.08362	
1769.0	0.0	1.27515	1.09698	
1770.0	0.0	1.27954	1.11328	
1771.0	0.0	1.28339	1.1261	
1772.0	0.0	1.28687	1.13947	
1773.0	0.0	1.28943	1.15192	
1774.0	0.0	1.29309	1.16199	
1775.0	0.0	1.29529	1.17462	
1776.0	0.0	1.29858	1.18506	
1777.0	0.0	1.30151	1.1922	
1778.0	0.0	1.30444	1.20483	
1779.0	0.0	1.30591	1.20813	
1780.0	0.0	1.30664	1.22131	
1781.0	0.0	1.30884	1.23303	
1782.0	0.0	1.30957	1.23944	
1783.0	0.0	1.31067	1.2475	
1784.0	0.0	1.31323	1.25116	
1785.0	0.0	1.3147	1.26178	
1786.0	0.0	1.3158	1.26508	
1787.0	0.0	1.31543	1.26965	
1788.0	0.0	1.31543	1.28229	
1789.0	0.0	1.31616	1.28137	
1790.0	0.0	1.31616	1.28938	
1791.0	0.0	1.31873	1.29474	
1792.0	0.0	1.31873	1.28925	
1793.0	0.0	1.32019	1.29346	
1794.0	0.0	1.32019	1.29236	
1795.0	0.0	1.32056	1.28577	
1796.0	0.0	1.32129	1.27991	
1797.0	0.0	1.32202	1.27991	
1798.0	0.0	1.32458	1.27222	
1799.0	0.0	1.32568	1.26595	
1800.0	0.0	1.32642	1.26434	
1801.0	0.0	1.32715	1.26196	
1802.0	0.0	1.32935	1.26004	
1803.0	0.0	1.32971	1.25885	
1804.0	0.0	1.33118	1.25409	
1805.0	0.0	1.33301	1.26453	
1806.0	0.0	1.33374	1.26874	
1807.0	0.0	1.33557	1.26581	
1808.0	0.0	1.33557	1.2713	
1809.0	0.0	1.33484	1.28265	
1810.0	0.0	1.33411	1.28925	
1811.0	0.0	1.33484	1.28906	
1812.0	0.0	1.33337	1.29749	
1813.0	0.0	1.33301	1.29895	
1814.0	0.0	1.33191	1.29749	
1815.0	0.0	1.33099	1.29639	
1816.0	0.0	1.33008	1.30151	
1817.0	0.0	1.32971	1.30261	
1818.0	0.0	1.32935	1.30371	
1819.0	0.0	1.32935	1.30518	
1820.0	0.0	1.32678	1.31177	
1821.0	0.0	1.32568	1.31067	
1822.0	0.0	1.32349	1.31744	
1823.0	0.0	1.32092	1.32056	
1824.0	0.0	1.31689	1.32623	
1825.0	0.0	1.3147	1.32935	
1826.0	0.0	1.31104	1.32697	
1827.0	0.0	1.30994	1.32861	
1828.0	0.0	1.30811	1.33429	
1829.0	0.0	1.30609	1.32935	
1830.0	0.0	1.30371	1.33539	
1831.0	0.0	1.30225	1.32495	
1832.0	0.0	1.29803	1.33374	
1833.0	0.0	1.29602	1.32788	
1834.0	0.0	1.29272	1.32568	
1835.0	0.0	1.28979	1.32404	
1836.0	0.0	1.2854	1.32367	
1837.0	0.0	1.28284	1.31927	
1838.0	0.0	1.28027	1.31195	
1839.0	0.0	1.28027	1.30536	
1840.0	0.0	1.27771	1.29785	
1841.0	0.0	1.27588	1.29419	
1842.0	0.0	1.27148	1.28833	
1843.0	0.0	1.26855	1.28467	
1844.0	0.0	1.26233	1.28247	
1845.0	0.0	1.2583	1.29089	
1846.0	0.0	1.25208	1.28503	
1847.0	0.0	1.24841	1.2843	
1848.0	0.0	1.24292	1.27368	
1849.0	0.0	1.23926	1.26782	
1850.0	0.0	1.23486	1.2594	
1851.0	0.0	1.2301	1.24365	
1852.0	0.0	1.22516	1.24127	
1853.0	0.0	1.22095	1.22003	
1854.0	0.0	1.21509	1.20831	
1855.0	0.0	1.21179	1.19348	
1856.0	0.0	1.20703	1.17719	
1857.0	0.0	1.20319	1.16309	
1858.0	0.0	1.19861	1.13818	
1859.0	0.0	1.19568	1.12646	
1860.0	0.0	1.19202	1.10413	
1861.0	0.0	1.19037	1.08545	
1862.0	0.0	1.18799	1.06384	
1863.0	0.0	1.18506	1.04407	
1864.0	0.0	1.18213	1.02283	
1865.0	0.0	1.1803	1.00104	
1866.0	0.0	1.17737	0.98859	
1867.0	0.0	1.1748	0.97119	
1868.0	0.0	1.17041	0.95782	
1869.0	0.0	1.16748	0.93896	
1870.0	0.0	1.16364	0.92816	
1871.0	0.0	1.16052	0.90948	
1872.0	0.0	1.15356	0.89355	
1873.0	0.0	1.15027	0.88074	
1874.0	0.0	1.14496	0.86517	
1875.0	0.0	1.14093	0.84613	
1876.0	0.0	1.13562	0.83057	
1877.0	0.0	1.13049	0.81665	
1878.0	0.0	1.12573	0.80054	
1879.0	0.0	1.11987	0.78918	
1880.0	0.0	1.11438	0.78223	
1881.0	0.0	1.10889	0.77747	
1882.0	0.0	1.10156	0.77765	
1883.0	0.0	1.09607	0.77838	
1884.0	0.0	1.08765	0.77509	
1885.0	0.0	1.08142	0.77856	
1886.0	0.0	1.07373	0.77692	
1887.0	0.0	1.06659	0.7793	
1888.0	0.0	1.05835	0.77893	
1889.0	0.0	1.05176	0.77783	
1890.0	0.0	1.04443	0.7782	
1891.0	0.0	1.03967	0.77307	
1892.0	0.0	1.0329	0.76703	
1893.0	0.0	1.02795	0.75916	
1894.0	0.0	1.02246	0.74707	
1895.0	0.0	1.01807	0.74213	
1896.0	0.0	1.01257	0.73114	
1897.0	0.0	1.00854	0.72235	
1898.0	0.0	1.00342	0.71356	
1899.0	0.0	1.00049	0.70532	
1900.0	0.0	0.99536	0.69965	
1901.0	0.0	0.99207	0.69397	
1902.0	0.0	0.98877	0.68774	
1903.0	0.0	0.98547	0.69031	
1904.0	0.0	0.97961	0.69168	
1905.0	0.0	0.97485	0.6991	
1906.0	0.0	0.96533	0.70679	
1907.0	0.0	0.95654	0.71228	
1908.0	0.0	0.94482	0.72688	
1909.0	0.0	0.9353	0.73718	
1910.0	0.0	0.92395	0.75165	
1911.0	0.0	0.91479	0.76593	
1912.0	0.0	0.90198	0.7782	
1913.0	0.0	0.89026	0.78552	
1914.0	0.0	0.87451	0.79688	
1915.0	0.0	0.85803	0.80695	
1916.0	0.0	0.83771	0.82013	
1917.0	0.0	0.81738	0.82379	
1918.0	0.0	0.79504	0.84668	
1919.0	0.0	0.77197	0.85876	
1920.0	0.0	0.74817	0.87982	
1921.0	0.0	0.72437	0.8952	
1922.0	0.0	0.7002	0.91992	
1923.0	0.0	0.67712	0.93878	
1924.0	0.0	0.65332	0.95471	
1925.0	0.0	0.6319	0.96094	
1926.0	0.0	0.60974	0.98035	
1927.0	0.0	0.58923	0.98657	
1928.0	0.0	0.56891	0.99481	
1929.0	0.0	0.54895	0.99573	
1930.0	0.0	0.52808	0.99152	
1931.0	0.0	0.5083	0.98236	
1932.0	0.0	0.48853	0.97705	
1933.0	0.0	0.47241	0.96126	
1934.0	0.0	0.45648	0.95654	
1935.0	0.0	0.4433	0.94519	
1936.0	0.0	0.4303	0.92432	
1937.0	0.0	0.42004	0.92908	
1938.0	0.0	0.41107	0.91553	
1939.0	0.0	0.4032	0.90454	
1940.0	0.0	0.39514	0.89868	
1941.0	0.0	0.39056	0.88458	
1942.0	0.0	0.38525	0.87689	
1943.0	0.0	0.38269	0.87433	
1944.0	0.0	0.38013	0.85529	
1945.0	0.0	0.37903	0.86188	
1946.0	0.0	0.37537	0.8476	
1947.0	0.0	0.37354	0.84988	
1948.0	0.0	0.37024	0.83716	
1949.0	0.0	0.36914	0.83771	
1950.0	0.0	0.36694	0.83057	
1951.0	0.0	0.36658	0.81995	
1952.0	0.0	0.36493	0.8139	
1953.0	0.0	0.36493	0.80988	
1954.0	0.0	0.36328	0.7972	
1955.0	0.0	0.36475	0.78662	
1956.0	0.0	0.36438	0.77142	
1957.0	0.0	0.36786	0.76245	
1958.0	0.0	0.36694	0.75256	
1959.0	0.0	0.36877	0.74561	
1960.0	0.0	0.36877	0.72858	
1961.0	0.0	0.37097	0.71741	
1962.0	0.0	0.36987	0.70844	
1963.0	0.0	0.37079	0.69415	
1964.0	0.0	0.36896	0.68408	
1965.0	0.0	0.36987	0.66943	
1966.0	0.0	0.36768	0.65067	
1967.0	0.0	0.36914	0.63922	
1968.0	0.0	0.36658	0.62402	
1969.0	0.0	0.36804	0.60965	
1970.0	0.0	0.36639	0.59875	
1971.0	0.0	0.36694	0.5874	
1972.0	0.0	0.36438	0.57916	
1973.0	0.0	0.36548	0.56525	
1974.0	0.0	0.36292	0.54401	
1975.0	0.0	0.36438	0.53925	
1976.0	0.0	0.36292	0.51251	
1977.0	0.0	0.36584	0.50208	
1978.0	0.0	0.36548	0.47461	
1979.0	0.0	0.36841	0.45667	
1980.0	0.0	0.36804	0.44659	
1981.0	0.0	0.37042	0.4292	
1982.0	0.0	0.36896	0.41144	
1983.0	0.0	0.36951	0.39606	
1984.0	0.0	0.36658	0.36969	
1985.0	0.0	0.36639	0.35614	
1986.0	0.0	0.36255	0.35138	
1987.0	0.0	0.36072	0.32684	
1988.0	0.0	0.35596	0.31512	
1989.0	0.0	0.35449	0.30194	
1990.0	0.0	0.34937	0.28876	
1991.0	0.0	0.34698	0.28656	
1992.0	0.0	0.34277	0.26624	
1993.0	0.0	0.34021	0.25616	
1994.0	0.0	0.33508	0.24371	
1995.0	0.0	0.33252	0.22083	
1996.0	0.0	0.32785	0.21661	
1997.0	0.0	0.32574	0.19189	
1998.0	0.0	0.32208	0.18677	
1999.0	0.0	0.3208	0.16608	
2000.0	0.0	0.31769	0.15509	
2001.0	0.0	0.31787	0.13641	
2002.0	0.0	0.31567	0.12286	
2003.0	0.0	0.31531	0.11298	
2004.0	0.0	0.31311	0.10272	
2005.0	0.0	0.31421	0.09009	
2006.0	0.0	0.31201	0.08185	
2007.0	0.0	0.31201	0.08002	
2008.0	0.0	0.31018	0.07379	
2009.0	0.0	0.3111	0.0683	
2010.0	0.0	0.30835	0.06473	
2011.0	0.0	0.30853	0.05878	
2012.0	0.0	0.30634	0.05109	
2013.0	0.0	0.30688	0.04395	
2014.0	0.0	0.30414	0.03369	
2015.0	0.0	0.30414	0.0249	
2016.0	0.0	0.30066	0.01204	
2017.0	0.0	0.30048	0.00027	
2018.0	0.0	0.29736	-0.01318	
2019.0	0.0	0.29626	-0.02312	
2020.0	0.0	0.29169	-0.03461	
2021.0	0.0	0.29004	-0.04189	
2022.0	0.0	0.28528	-0.05219	
2023.0	0.0	0.28198	-0.05475	
2024.0	0.0	0.27539	-0.06702	
2025.0	0.0	0.27063	-0.07507	
2026.0	0.0	0.26367	-0.08002	
2027.0	0.0	0.25928	-0.08734	
2028.0	0.0	0.25287	-0.08917	
2029.0	0.0	0.24902	-0.09705	
2030.0	0.0	0.2417	-0.10474	
2031.0	0.0	0.23767	-0.11005	
2032.0	0.0	0.23163	-0.11353	
2033.0	0.0	0.22852	-0.11957	
2034.0	0.0	0.22229	-0.12415	
2035.0	0.0	0.2168	-0.11774	
2036.0	0.0	0.20947	-0.117	
2037.0	0.0	0.20435	-0.11243	
2038.0	0.0	0.19666	-0.10931	
2039.0	0.0	0.19336	-0.10602	
2040.0	0.0	0.18622	-0.10638	
2041.0	0.0	0.18256	-0.10822	
2042.0	0.0	0.17578	-0.1192	
2043.0	0.0	0.17212	-0.13037	
2044.0	0.0	0.16553	-0.14264	
2045.0	0.0	0.16113	-0.15472	
2046.0	0.0	0.15601	-0.16406	
2047.0	0.0	0.15308	-0.1756	
2048.0	0.0	0.1474	-0.1897	
2049.0	0.0	0.14502	-0.20027	
2050.0	0.0	0.14136	-0.20819	
2051.0	0.0	0.14026	-0.22192	
2052.0	0.0	0.13623	-0.23712	
2053.0	0.0	0.1355	-0.24884	
2054.0	0.0	0.13184	-0.25891	
2055.0	0.0	0.13037	-0.27283	
2056.0	0.0	0.12598	-0.27832	
2057.0	0.0	0.12396	-0.29013	
2058.0	0.0	0.12103	-0.31293	
2059.0	0.0	0.11902	-0.31989	
2060.0	0.0	0.11499	-0.32281	
2061.0	0.0	0.11224	-0.33746	
2062.0	0.0	0.10657	-0.34808	
2063.0	0.0	0.10364	-0.34296	
2064.0	0.0	0.09814	-0.35138	
2065.0	0.0	0.0943	-0.36182	
2066.0	0.0	0.08661	-0.36465	
2067.0	0.0	0.0802	-0.36786	
2068.0	0.0	0.07141	-0.3783	
2069.0	0.0	0.06372	-0.37994	
2070.0	0.0	0.05457	-0.38617	
2071.0	0.0	0.04889	-0.3924	
2072.0	0.0	0.04175	-0.39532	
2073.0	0.0	0.0379	-0.39496	
2074.0	0.0	0.03296	-0.40443	
2075.0	0.0	0.03113	-0.41519	
2076.0	0.0	0.02838	-0.43158	
2077.0	0.0	0.02747	-0.43616	
2078.0	0.0	0.0238	-0.45776	
2079.0	0.0	0.02325	-0.47754	
2080.0	0.0	0.02042	-0.51013	
2081.0	0.0	0.02032	-0.54419	
2082.0	0.0	0.01813	-0.56987	
2083.0	0.0	0.01904	-0.61304	
2084.0	0.0	0.01611	-0.66211	
2085.0	0.0	0.01575	-0.70496	
2086.0	0.0	0.01337	-0.74158	
2087.0	0.0	0.01501	-0.78479	
2088.0	0.0	0.01501	-0.82123	
2089.0	0.0	0.01849	-0.85492	
2090.0	0.0	0.01941	-0.89424	
2091.0	0.0	0.0238	-0.92157	
2092.0	0.0	0.02417	-0.957	
2093.0	0.0	0.02875	-0.98392	
2094.0	0.0	0.0304	-1.00983	
2095.0	0.0	0.03973	-1.04036	
2096.0	0.0	0.05383	-1.06741	
2097.0	0.0	0.08167	-1.09323	
2098.0	0.0	0.11682	-1.1098	
2099.0	0.0	0.1637	-1.13342	
2100.0	0.0	0.2146	-1.15814	
2101.0	0.0	0.27045	-1.17471	
2102.0	0.0	0.32446	-1.18954	
2103.0	0.0	0.37921	-1.20776	
2104.0	0.0	0.42865	-1.22241	
2105.0	0.0	0.47443	-1.23679	
2106.0	0.0	0.51306	-1.24356	
2107.0	0.0	0.54712	-1.25331	
2108.0	0.0	0.57349	-1.24507	
2109.0	0.0	0.59399	-1.21701	
2110.0	0.0	0.60425	-1.1846	
2111.0	0.0	0.60626	-1.13828	
2112.0	0.0	0.59546	-1.0925	
2113.0	0.0	0.57935	-1.04091	
2114.0	0.0	0.55243	-0.98795	
2115.0	0.0	0.52222	-0.93649	
2116.0	0.0	0.48413	-0.88339	
2117.0	0.0	0.44604	-0.83569	
2118.0	0.0	0.40173	-0.80319	
2119.0	0.0	0.35779	-0.77271	
2120.0	0.0	0.31238	-0.76822	
2121.0	0.0	0.27045	-0.76648	
2122.0	0.0	0.22705	-0.78973	
2123.0	0.0	0.18567	-0.83015	
2124.0	0.0	0.14246	-0.87836	
2125.0	0.0	0.10181	-0.92496	
2126.0	0.0	0.05878	-0.96341	
2127.0	0.0	0.01758	-1.00085	
2128.0	0.0	-0.02563	-1.03244	
2129.0	0.0	-0.0661	-1.06659	
2130.0	0.0	-0.10785	-1.09337	
2131.0	0.0	-0.14941	-1.11708	
2132.0	0.0	-0.19482	-1.13846	
2133.0	0.0	-0.23932	-1.16528	
2134.0	0.0	-0.28638	-1.17883	
2135.0	0.0	-0.33325	-1.19669	
2136.0	0.0	-0.38159	-1.2117	
2137.0	0.0	-0.42737	-1.21271	
2138.0	0.0	-0.47488	-1.21271	
2139.0	0.0	-0.5213	-1.21916	
2140.0	0.0	-0.56982	-1.22424	
2141.0	0.0	-0.61633	-1.22566	
2142.0	0.0	-0.66229	-1.22969	
2143.0	0.0	-0.70349	-1.23322	
2144.0	0.0	-0.74323	-1.24622	
2145.0	0.0	-0.7793	-1.24796	
2146.0	0.0	-0.81445	-1.25011	
2147.0	0.0	-0.84631	-1.24443	
2148.0	0.0	-0.87772	-1.23303	
2149.0	0.0	-0.90665	-1.21408	
2150.0	0.0	-0.93457	-1.1954	
2151.0	0.0	-0.96002	-1.16341	
2152.0	0.0	-0.98456	-1.1364	
2153.0	0.0	-1.00562	-1.10939	
2154.0	0.0	-1.02567	-1.08838	
2155.0	0.0	-1.04022	-1.06622	
2156.0	0.0	-1.05331	-1.0481	
2157.0	0.0	-1.06119	-1.02631	
2158.0	0.0	-1.06787	-1.00447	
2159.0	0.0	-1.06924	-0.98502	
2160.0	0.0	-1.06787	-0.96442	
2161.0	0.0	-1.05762	-0.9429	
2162.0	0.0	-1.04544	-0.92276	
2163.0	0.0	-1.02644	-0.88028	
2164.0	0.0	-1.00868	-0.84357	
2165.0	0.0	-0.98804	-0.77289	
2166.0	0.0	-0.97275	-0.70624	
2167.0	0.0	-0.95691	-0.62659	
2168.0	0.0	-0.9472	-0.53833	
2169.0	0.0	-0.93704	-0.45703	
2170.0	0.0	-0.93228	-0.37006	
2171.0	0.0	-0.92532	-0.28766	
2172.0	0.0	-0.92427	-0.20471	
2173.0	0.0	-0.91956	-0.10748	
2174.0	0.0	-0.91809	-0.05054	
2175.0	0.0	-0.91351	0.05443	
2176.0	0.0	-0.91406	0.12616	
2177.0	0.0	-0.91187	0.21075	
2178.0	0.0	-0.91278	0.27429	
2179.0	0.0	-0.91068	0.34607	
2180.0	0.0	-0.9126	0.41199	
2181.0	0.0	-0.91072	0.4585	
2182.0	0.0	-0.91342	0.51782	
2183.0	0.0	-0.91241	0.56506	
2184.0	0.0	-0.91644	0.61176	
2185.0	0.0	-0.91791	0.65826	
2186.0	0.0	-0.9245	0.69928	
2187.0	0.0	-0.92725	0.74084	
2188.0	0.0	-0.93466	0.76721	
2189.0	0.0	-0.93631	0.81299	
2190.0	0.0	-0.94189	0.84705	
2191.0	0.0	-0.94482	0.87598	
2192.0	0.0	-0.95361	0.90692	
2193.0	0.0	-0.95984	0.93018	
2194.0	0.0	-0.97165	0.96423	
2195.0	0.0	-0.97998	0.9809	
2196.0	0.0	-0.99115	1.00452	
2197.0	0.0	-0.99701	1.02759	
2198.0	0.0	-1.00745	1.04919	
2199.0	0.0	-1.01303	1.06659	
2200.0	0.0	-1.02205	1.08582	
2201.0	0.0	-1.02612	1.09863	
2202.0	0.0	-1.03345	1.11896	
2203.0	0.0	-1.03761	1.13818	
2204.0	0.0	-1.04361	1.14876	
2205.0	0.0	-1.04352	1.15997	
2206.0	0.0	-1.04517	1.17188	
2207.0	0.0	-1.04224	1.18726	
2208.0	0.0	-1.04388	1.19238	
2209.0	0.0	-1.03931	1.19824	
2210.0	0.0	-1.03738	1.21326	
2211.0	0.0	-1.02905	1.22186	
2212.0	0.0	-1.02393	1.23193	
2213.0	0.0	-1.01367	1.24493	
2214.0	0.0	-1.00635	1.255	
2215.0	0.0	-0.9944	1.26379	
2216.0	0.0	-0.98721	1.26672	
2217.0	0.0	-0.97554	1.27808	
2218.0	0.0	-0.96936	1.28027	
2219.0	0.0	-0.95801	1.27405	
2220.0	0.0	-0.94995	1.26929	
2221.0	0.0	-0.93604	1.26855	
2222.0	0.0	-0.92542	1.25372	
2223.0	0.0	-0.91022	1.24915	
2224.0	0.0	-0.89822	1.23505	
2225.0	0.0	-0.88202	1.23358	
2226.0	0.0	-0.86975	1.22241	
2227.0	0.0	-0.85254	1.21875	
2228.0	0.0	-0.83771	1.21271	
2229.0	0.0	-0.81848	1.20227	
2230.0	0.0	-0.80383	1.18671	
2231.0	0.0	-0.78516	1.17188	
2232.0	0.0	-0.77106	1.15485	
2233.0	0.0	-0.75366	1.12665	
2234.0	0.0	-0.73956	1.09625	
2235.0	0.0	-0.72226	1.06879	
2236.0	0.0	-0.70917	1.04169	
2237.0	0.0	-0.69269	1.02118	
2238.0	0.0	-0.68005	0.99481	
2239.0	0.0	-0.66467	0.9657	
2240.0	0.0	-0.65424	0.93951	
2241.0	0.0	-0.64288	0.90985	
2242.0	0.0	-0.63684	0.88504	
2243.0	0.0	-0.6286	0.85364	
2244.0	0.0	-0.6264	0.82599	
2245.0	0.0	-0.62128	0.80402	
2246.0	0.0	-0.62292	0.77307	
2247.0	0.0	-0.62219	0.74341	
2248.0	0.0	-0.62714	0.69617	
2249.0	0.0	-0.62659	0.65808	
2250.0	0.0	-0.63007	0.62128	
2251.0	0.0	-0.6275	0.58429	
2252.0	0.0	-0.62869	0.54822	
2253.0	0.0	-0.62549	0.50537	
2254.0	0.0	-0.6286	0.42682	
2255.0	0.0	-0.62714	0.36292	
2256.0	0.0	-0.63318	0.28857	
2257.0	0.0	-0.63492	0.21378	
2258.0	0.0	-0.6438	0.15161	
2259.0	0.0	-0.65057	0.10712	
2260.0	0.0	-0.66467	0.07159	
2261.0	0.0	-0.67566	0.02234	
2262.0	0.0	-0.69232	-0.03699	
2263.0	0.0	-0.70267	-0.06647	
2264.0	0.0	-0.71521	-0.1062	
2265.0	0.0	-0.72034	-0.13367	
2266.0	0.0	-0.72729	-0.17706	
2267.0	0.0	-0.72656	-0.20801	
2268.0	0.0	-0.72949	-0.23804	
2269.0	0.0	-0.72391	-0.24884	
2270.0	0.0	-0.72198	-0.28546	
2271.0	0.0	-0.71301	-0.30908	
2272.0	0.0	-0.70752	-0.31439	
2273.0	0.0	-0.69443	-0.30835	
2274.0	0.0	-0.68536	-0.323	
2275.0	0.0	-0.67053	-0.31897	
2276.0	0.0	-0.66083	-0.31567	
2277.0	0.0	-0.646	-0.31183	
2278.0	0.0	-0.63428	-0.31604	
2279.0	0.0	-0.61615	-0.30194	
2280.0	0.0	-0.60168	-0.31403	
2281.0	0.0	-0.58209	-0.31357	
2282.0	0.0	-0.56552	-0.32455	
2283.0	0.0	-0.54401	-0.33614	
2284.0	0.0	-0.52643	-0.36603	
2285.0	0.0	-0.50555	-0.38599	
2286.0	0.0	-0.48743	-0.41125	
2287.0	0.0	-0.46317	-0.43506	
2288.0	0.0	-0.44165	-0.47205	
2289.0	0.0	-0.41528	-0.50372	
2290.0	0.0	-0.39459	-0.54007	
2291.0	0.0	-0.37006	-0.56831	
2292.0	0.0	-0.34955	-0.60187	
2293.0	0.0	-0.32391	-0.62292	
2294.0	0.0	-0.30231	-0.65204	
2295.0	0.0	-0.27612	-0.67465	
2296.0	0.0	-0.25562	-0.69818	
2297.0	0.0	-0.23236	-0.71722	
2298.0	0.0	-0.2135	-0.74002	
2299.0	0.0	-0.19116	-0.75183	
2300.0	0.0	-0.17358	-0.78442	
2301.0	0.0	-0.15198	-0.7998	
2302.0	0.0	-0.13477	-0.82187	
2303.0	0.0	-0.11316	-0.84375	
2304.0	0.0	-0.0954	-0.86343	
2305.0	0.0	-0.07324	-0.87378	
2306.0	0.0	-0.05493	-0.89191	
2307.0	0.0	-0.03296	-0.89992	
2308.0	0.0	-0.01538	-0.91058	
2309.0	0.0	0.00696	-0.91562	
2310.0	0.0	0.02307	-0.91122	
2311.0	0.0	0.04578	-0.90427	
2312.0	0.0	0.06445	-0.9006	
2313.0	0.0	0.08716	-0.8855	
2314.0	0.0	0.10437	-0.8735	
2315.0	0.0	0.12744	-0.84631	
2316.0	0.0	0.14484	-0.82745	
2317.0	0.0	0.16718	-0.79431	
2318.0	0.0	0.18567	-0.77312	
2319.0	0.0	0.20966	-0.73792	
2320.0	0.0	0.22815	-0.70569	
2321.0	0.0	0.25012	-0.66724	
2322.0	0.0	0.26788	-0.63391	
2323.0	0.0	0.28912	-0.59216	
2324.0	0.0	0.30725	-0.55884	
2325.0	0.0	0.32922	-0.51691	
2326.0	0.0	0.34717	-0.47488	
2327.0	0.0	0.36914	-0.43561	
2328.0	0.0	0.3858	-0.39368	
2329.0	0.0	0.40576	-0.35907	
2330.0	0.0	0.42114	-0.31531	
2331.0	0.0	0.44092	-0.26175	
2332.0	0.0	0.4563	-0.22339	
2333.0	0.0	0.47681	-0.18109	
2334.0	0.0	0.49109	-0.13412	
2335.0	0.0	0.51086	-0.08057	
2336.0	0.0	0.52588	-0.01465	
2337.0	0.0	0.54529	0.04779	
2338.0	0.0	0.55847	0.0965	
2339.0	0.0	0.57568	0.16132	
2340.0	0.0	0.5874	0.21313	
2341.0	0.0	0.6048	0.27173	
2342.0	0.0	0.61743	0.32648	
2343.0	0.0	0.63611	0.38287	
2344.0	0.0	0.64984	0.43286	
2345.0	0.0	0.6676	0.49182	
2346.0	0.0	0.68042	0.54053	
2347.0	0.0	0.69763	0.58704	
2348.0	0.0	0.70862	0.63409	
2349.0	0.0	0.72583	0.67749	
2350.0	0.0	0.73682	0.71411	
2351.0	0.0	0.75293	0.7511	
2352.0	0.0	0.76282	0.78387	
2353.0	0.0	0.77875	0.81665	
2354.0	0.0	0.78882	0.84283	
2355.0	0.0	0.8031	0.86902	
2356.0	0.0	0.81226	0.89795	
2357.0	0.0	0.82581	0.91388	
2358.0	0.0	0.8335	0.93237	
2359.0	0.0	0.84631	0.95645	
2360.0	0.0	0.85181	0.96222	
2361.0	0.0	0.86206	0.96112	
2362.0	0.0	0.86572	0.96606	
2363.0	0.0	0.87415	0.97485	
2364.0	0.0	0.87524	0.97632	
2365.0	0.0	0.88403	0.98657	
2366.0	0.0	0.88422	0.98859	
2367.0	0.0	0.89172	1.00031	
2368.0	0.0	0.89136	1.00488	
2369.0	0.0	0.89648	1.00452	
2370.0	0.0	0.89539	1.01514	
2371.0	0.0	0.90088	1.03271	
2372.0	0.0	0.89795	1.03564	
2373.0	0.0	0.90216	1.04773	
2374.0	0.0	0.89941	1.05157	
2375.0	0.0	0.90308	1.06073	
2376.0	0.0	0.90015	1.07574	
2377.0	0.0	0.90417	1.09058	
2378.0	0.0	0.90015	1.09717	
2379.0	0.0	0.90308	1.12628	
2380.0	0.0	0.89832	1.13947	
2381.0	0.0	0.90088	1.15594	
2382.0	0.0	0.89612	1.16473	
2383.0	0.0	0.89832	1.17883	
2384.0	0.0	0.89337	1.19458	
2385.0	0.0	0.89612	1.20447	
2386.0	0.0	0.89136	1.21399	
2387.0	0.0	0.89429	1.22113	
2388.0	0.0	0.88953	1.22754	
2389.0	0.0	0.89282	1.23468	
2390.0	0.0	0.88989	1.24603	
2391.0	0.0	0.89282	1.26508	
2392.0	0.0	0.89026	1.27423	
2393.0	0.0	0.89429	1.28174	
2394.0	0.0	0.89172	1.28339	
2395.0	0.0	0.89722	1.29126	
2396.0	0.0	0.89429	1.30426	
2397.0	0.0	0.90015	1.30829	
2398.0	0.0	0.90015	1.31781	
2399.0	0.0	0.90784	1.32001	
2400.0	0.0	0.90747	1.32111	
2401.0	0.0	0.91479	1.32404	
2402.0	0.0	0.91479	1.32861	
2403.0	0.0	0.92249	1.33337	
2404.0	0.0	0.92432	1.33191	
2405.0	0.0	0.93091	1.33626	
2406.0	0.0	0.93091	1.33978	
2407.0	0.0	0.9375	1.34052	
2408.0	0.0	0.93457	1.34729	
2409.0	0.0	0.9397	1.34454	
2410.0	0.0	0.9375	1.34912	
2411.0	0.0	0.94263	1.35315	
2412.0	0.0	0.94006	1.33594	
2413.0	0.0	0.94427	1.35168	
2414.0	0.0	0.94006	1.34033	
2415.0	0.0	0.94373	1.33704	
2416.0	0.0	0.93823	1.33392	
2417.0	0.0	0.94171	1.3288	
2418.0	0.0	0.93604	1.33154	
2419.0	0.0	0.93896	1.3244	
2420.0	0.0	0.93311	1.32129	
2421.0	0.0	0.93494	1.31342	
2422.0	0.0	0.92688	1.3125	
2423.0	0.0	0.92761	1.30774	
2424.0	0.0	0.91901	1.30371	
2425.0	0.0	0.91809	1.30664	
2426.0	0.0	0.90967	1.30334	
2427.0	0.0	0.9082	1.30188	
2428.0	0.0	0.89941	1.29144	
2429.0	0.0	0.89832	1.30078	
2430.0	0.0	0.88916	1.29346	
2431.0	0.0	0.88953	1.29492	
2432.0	0.0	0.88074	1.28375	
2433.0	0.0	0.87964	1.2843	
2434.0	0.0	0.87122	1.26562	
2435.0	0.0	0.87177	1.26892	
2436.0	0.0	0.86426	1.25079	
2437.0	0.0	0.86444	1.24164	
2438.0	0.0	0.85583	1.22589	
2439.0	0.0	0.85529	1.23248	
2440.0	0.0	0.84668	1.21907	
2441.0	0.0	0.84668	1.21179	
2442.0	0.0	0.83716	1.21765	
2443.0	0.0	0.83752	1.21362	
2444.0	0.0	0.82855	1.20795	
2445.0	0.0	0.82855	1.21692	
2446.0	0.0	0.82086	1.20996	
2447.0	0.0	0.82141	1.21216	
2448.0	0.0	0.81372	1.20795	
2449.0	0.0	0.81354	1.21609	
2450.0	0.0	0.8064	1.21161	
2451.0	0.0	0.80585	1.21655	
2452.0	0.0	0.79944	1.21399	
2453.0	0.0	0.80164	1.21729	
2454.0	0.0	0.79541	1.21614	
2455.0	0.0	0.79907	1.21381	
2456.0	0.0	0.79321	1.2041	
2457.0	0.0	0.79688	1.19733	
2458.0	0.0	0.79175	1.18726	
2459.0	0.0	0.79541	1.17902	
2460.0	0.0	0.79102	1.17508	
2461.0	0.0	0.79688	1.16711	
2462.0	0.0	0.79358	1.15851	
2463.0	0.0	0.79907	1.15906	
2464.0	0.0	0.79395	1.14954	
2465.0	0.0	0.79907	1.151	
2466.0	0.0	0.79431	1.14771	
2467.0	0.0	0.80054	1.13892	
2468.0	0.0	0.79633	1.13983	
2469.0	0.0	0.80145	1.14459	
2470.0	0.0	0.79688	1.15457	
2471.0	0.0	0.80237	1.16565	
2472.0	0.0	0.79834	1.16309	
2473.0	0.0	0.8042	1.18359	
2474.0	0.0	0.802	1.17719	
2475.0	0.0	0.80988	1.19037	
2476.0	0.0	0.80859	1.18781	
2477.0	0.0	0.81738	1.20081	
2478.0	0.0	0.81555	1.20483	
2479.0	0.0	0.82288	1.21907	
2480.0	0.0	0.82068	1.23651	
2481.0	0.0	0.82855	1.24251	
2482.0	0.0	0.828	1.25244	
2483.0	0.0	0.83624	1.26595	
2484.0	0.0	0.83569	1.26068	
2485.0	0.0	0.84448	1.2702	
2486.0	0.0	0.84375	1.2746	
2487.0	0.0	0.85254	1.28833	
2488.0	0.0	0.85217	1.2832	
2489.0	0.0	0.86096	1.29749	
2490.0	0.0	0.86023	1.29108	
2491.0	0.0	0.86774	1.30627	
2492.0	0.0	0.86591	1.30444	
2493.0	0.0	0.87469	1.30847	
2494.0	0.0	0.87122	1.3114	
2495.0	0.0	0.87891	1.31104	
2496.0	0.0	0.87634	1.31177	
2497.0	0.0	0.88293	1.30847	
2498.0	0.0	0.87854	1.30481	
2499.0	0.0	0.8855	1.30408	
2500.0	0.0	0.88257	1.2995	
2501.0	0.0	0.88916	1.29126	
2502.0	0.0	0.88568	1.27167	
2503.0	0.0	0.89246	1.27496	
2504.0	0.0	0.88916	1.25208	
2505.0	0.0	0.89502	1.24622	
2506.0	0.0	0.89026	1.22791	
2507.0	0.0	0.89539	1.22607	
2508.0	0.0	0.89062	1.20923	
2509.0	0.0	0.89575	1.2019	
2510.0	0.0	0.89172	1.18561	
2511.0	0.0	0.89832	1.18066	
2512.0	0.0	0.89465	1.17316	
2513.0	0.0	0.89941	1.17215	
2514.0	0.0	0.89575	1.16693	
2515.0	0.0	0.90088	1.1722	
2516.0	0.0	0.89685	1.15997	
2517.0	0.0	0.90344	1.17407	
2518.0	0.0	0.89868	1.16043	
2519.0	0.0	0.90381	1.16968	
2520.0	0.0	0.89941	1.16162	
2521.0	0.0	0.90491	1.15576	
2522.0	0.0	0.90125	1.15356	
2523.0	0.0	0.90784	1.1554	
2524.0	0.0	0.90381	1.14606	
2525.0	0.0	0.91058	1.1488	
2526.0	0.0	0.9071	1.13745	
2527.0	0.0	0.9126	1.13562	
2528.0	0.0	0.90784	1.12775	
2529.0	0.0	0.9137	1.12207	
2530.0	0.0	0.90894	1.12042	
2531.0	0.0	0.91516	1.11841	
2532.0	0.0	0.9115	1.11072	
2533.0	0.0	0.91864	1.11475	
2534.0	0.0	0.91461	1.10651	
2535.0	0.0	0.92285	1.11658	
2536.0	0.0	0.91937	1.10944	
2537.0	0.0	0.92725	1.11713	
2538.0	0.0	0.92358	1.11145	
2539.0	0.0	0.93109	1.11584	
2540.0	0.0	0.92908	1.11475	
2541.0	0.0	0.93604	1.1239	
2542.0	0.0	0.93237	1.11621	
2543.0	0.0	0.94043	1.11346	
2544.0	0.0	0.9364	1.11218	
2545.0	0.0	0.94153	1.11603	
2546.0	0.0	0.93567	1.11053	
2547.0	0.0	0.93988	1.12006	
2548.0	0.0	0.93384	1.11786	
2549.0	0.0	0.93933	1.12445	
2550.0	0.0	0.93347	1.1109	
2551.0	0.0	0.9397	1.10815	
2552.0	0.0	0.93457	1.09991	
2553.0	0.0	0.94116	1.08984	
2554.0	0.0	0.9353	1.08582	
2555.0	0.0	0.94061	1.07227	
2556.0	0.0	0.93475	1.06293	
2557.0	0.0	0.94043	1.0578	
2558.0	0.0	0.93494	1.03564	
2559.0	0.0	0.94116	1.034	
2560.0	0.0	0.9364	1.01294	
2561.0	0.0	0.94226	1.00543	
2562.0	0.0	0.93604	0.99609	
2563.0	0.0	0.94189	1.00122	
2564.0	0.0	0.93567	0.98438	
2565.0	0.0	0.9408	0.99976	
2566.0	0.0	0.93384	0.99719	
2567.0	0.0	0.93787	1.00159	
2568.0	0.0	0.93054	0.99902	
2569.0	0.0	0.93457	1.00964	
2570.0	0.0	0.92505	1.00635	
2571.0	0.0	0.92871	1.02045	
2572.0	0.0	0.91956	1.01038	
2573.0	0.0	0.92065	1.02942	
2574.0	0.0	0.9104	1.03308	
2575.0	0.0	0.91205	1.05304	
2576.0	0.0	0.90234	1.06238	
2577.0	0.0	0.90417	1.07831	
2578.0	0.0	0.89355	1.08838	
2579.0	0.0	0.89465	1.10651	
2580.0	0.0	0.88477	1.10706	
2581.0	0.0	0.88733	1.12756	
2582.0	0.0	0.87817	1.13361	
2583.0	0.0	0.8811	1.15228	
2584.0	0.0	0.8736	1.15485	
2585.0	0.0	0.87634	1.17151	
2586.0	0.0	0.8681	1.18103	
2587.0	0.0	0.87122	1.20264	
2588.0	0.0	0.86353	1.20593	
2589.0	0.0	0.86554	1.21893	
2590.0	0.0	0.8562	1.22717	
2591.0	0.0	0.85767	1.24251	
2592.0	0.0	0.84668	1.24365	
2593.0	0.0	0.84851	1.25647	
2594.0	0.0	0.83899	1.2453	
2595.0	0.0	0.84155	1.26746	
2596.0	0.0	0.8313	1.25995	
2597.0	0.0	0.83423	1.26947	
2598.0	0.0	0.82544	1.27112	
2599.0	0.0	0.82855	1.27167	
2600.0	0.0	0.82104	1.26123	
2601.0	0.0	0.82544	1.25702	
2602.0	0.0	0.81812	1.23999	
2603.0	0.0	0.82178	1.21454	
2604.0	0.0	0.81445	1.18066	
2605.0	0.0	0.81775	1.16803	
2606.0	0.0	0.80969	1.12299	
2607.0	0.0	0.81226	1.10284	
2608.0	0.0	0.80493	1.05817	
2609.0	0.0	0.80859	1.03157	
2610.0	0.0	0.80164	0.99518	
2611.0	0.0	0.80566	0.96771	
2612.0	0.0	0.79871	0.93567	
2613.0	0.0	0.80237	0.91003	
2614.0	0.0	0.79321	0.88422	
2615.0	0.0	0.79724	0.86261	
2616.0	0.0	0.78955	0.83386	
2617.0	0.0	0.79395	0.81958	
2618.0	0.0	0.78625	0.79285	
2619.0	0.0	0.78918	0.78278	
2620.0	0.0	0.78113	0.75916	
2621.0	0.0	0.78461	0.76117	
2622.0	0.0	0.77765	0.73975	
2623.0	0.0	0.78149	0.74194	
2624.0	0.0	0.77527	0.72986	
2625.0	0.0	0.78058	0.73059	
2626.0	0.0	0.7749	0.71979	
2627.0	0.0	0.78003	0.7207	
2628.0	0.0	0.77271	0.7099	
2629.0	0.0	0.77747	0.70532	
2630.0	0.0	0.76978	0.70093	
2631.0	0.0	0.77454	0.70038	
2632.0	0.0	0.7663	0.68994	
2633.0	0.0	0.76904	0.69122	
2634.0	0.0	0.76007	0.67767	
2635.0	0.0	0.76318	0.67584	
2636.0	0.0	0.75403	0.67456	
2637.0	0.0	0.75732	0.67584	
2638.0	0.0	0.7489	0.6741	
2639.0	0.0	0.75146	0.69287	
2640.0	0.0	0.74139	0.68518	
2641.0	0.0	0.74377	0.70422	
2642.0	0.0	0.73425	0.70386	
2643.0	0.0	0.73572	0.71924	
2644.0	0.0	0.72583	0.70972	
2645.0	0.0	0.72729	0.7229	
2646.0	0.0	0.71704	0.7229	
2647.0	0.0	0.71851	0.73132	
2648.0	0.0	0.70898	0.72144	
2649.0	0.0	0.71228	0.72968	
2650.0	0.0	0.70422	0.71887	
2651.0	0.0	0.70789	0.72473	
2652.0	0.0	0.6991	0.70825	
2653.0	0.0	0.70184	0.71704	
2654.0	0.0	0.69232	0.70129	
2655.0	0.0	0.6936	0.71082	
2656.0	0.0	0.68335	0.69983	
2657.0	0.0	0.68518	0.70345	
2658.0	0.0	0.67493	0.6958	
2659.0	0.0	0.67749	0.70345	
2660.0	0.0	0.66797	0.69965	
2661.0	0.0	0.6709	0.7088	
2662.0	0.0	0.66119	0.71796	
2663.0	0.0	0.66284	0.74341	
2664.0	0.0	0.65222	0.75275	
2665.0	0.0	0.65259	0.77838	
2666.0	0.0	0.6416	0.78186	
2667.0	0.0	0.64307	0.81335	
2668.0	0.0	0.63208	0.8172	
2669.0	0.0	0.63208	0.84407	
2670.0	0.0	0.62183	0.84888	
2671.0	0.0	0.62274	0.867	
2672.0	0.0	0.61066	0.86609	
2673.0	0.0	0.61047	0.87616	
2674.0	0.0	0.59839	0.8736	
2675.0	0.0	0.59692	0.87918	
2676.0	0.0	0.58521	0.87836	
2677.0	0.0	0.58484	0.89191	
2678.0	0.0	0.57312	0.88495	
2679.0	0.0	0.57275	0.89026	
2680.0	0.0	0.56104	0.88275	
2681.0	0.0	0.5603	0.89685	
2682.0	0.0	0.54822	0.89081	
2683.0	0.0	0.54712	0.90308	
2684.0	0.0	0.5343	0.89447	
2685.0	0.0	0.53174	0.89832	
2686.0	0.0	0.51855	0.89832	
2687.0	0.0	0.51709	0.90399	
2688.0	0.0	0.50482	0.89575	
2689.0	0.0	0.50281	0.91434	
2690.0	0.0	0.48816	0.90198	
2691.0	0.0	0.48413	0.93018	
2692.0	0.0	0.46893	0.93311	
2693.0	0.0	0.46472	0.94647	
2694.0	0.0	0.44971	0.95215	
2695.0	0.0	0.44641	0.96259	
2696.0	0.0	0.43195	0.96259	
2697.0	0.0	0.4292	0.97485	
2698.0	0.0	0.41492	0.97137	
2699.0	0.0	0.41309	0.9847	
2700.0	0.0	0.3999	0.97687	
2701.0	0.0	0.39807	0.97815	
2702.0	0.0	0.38617	0.97375	
2703.0	0.0	0.38434	0.97321	
2704.0	0.0	0.37097	0.96002	
2705.0	0.0	0.36914	0.9538	
2706.0	0.0	0.35522	0.93915	
2707.0	0.0	0.35394	0.93146	
2708.0	0.0	0.34167	0.91278	
2709.0	0.0	0.34076	0.90894	
2710.0	0.0	0.32812	0.88367	
2711.0	0.0	0.32666	0.87817	
2712.0	0.0	0.31531	0.8606	
2713.0	0.0	0.31567	0.84595	
2714.0	0.0	0.30359	0.83167	
2715.0	0.0	0.30212	0.82063	
2716.0	0.0	0.28967	0.79614	
2717.0	0.0	0.28967	0.77911	
2718.0	0.0	0.27777	0.76465	
2719.0	0.0	0.27722	0.75366	
2720.0	0.0	0.26587	0.72876	
2721.0	0.0	0.26587	0.71375	
2722.0	0.0	0.25543	0.69727	
2723.0	0.0	0.2558	0.67108	
2724.0	0.0	0.24536	0.64948	
2725.0	0.0	0.24646	0.63007	
2726.0	0.0	0.23621	0.60132	
2727.0	0.0	0.23657	0.57367	
2728.0	0.0	0.22632	0.54071	
2729.0	0.0	0.22705	0.51526	
2730.0	0.0	0.21661	0.466	
2731.0	0.0	0.2179	0.44861	
2732.0	0.0	0.20801	0.41675	
2733.0	0.0	0.20911	0.38562	
2734.0	0.0	0.19885	0.35303	
2735.0	0.0	0.19904	0.3349	
2736.0	0.0	0.18787	0.31018	
2737.0	0.0	0.1875	0.29324	
2738.0	0.0	0.17615	0.26166	
2739.0	0.0	0.17615	0.25227	
2740.0	0.0	0.16498	0.23584	
2741.0	0.0	0.16626	0.22961	
2742.0	0.0	0.15564	0.20709	
2743.0	0.0	0.15674	0.1897	
2744.0	0.0	0.14612	0.1745	
2745.0	0.0	0.14722	0.16864	
2746.0	0.0	0.13696	0.14648	
2747.0	0.0	0.13843	0.12653	
2748.0	0.0	0.12891	0.10236	
2749.0	0.0	0.13202	0.09247	
2750.0	0.0	0.12305	0.05914	
2751.0	0.0	0.12561	0.04266	
2752.0	0.0	0.11682	0.01154	
2753.0	0.0	0.11938	-0.00183	
2754.0	0.0	0.1106	-0.03607	
2755.0	0.0	0.11481	-0.05804	
2756.0	0.0	0.10712	-0.09686	
2757.0	0.0	0.11169	-0.12012	
2758.0	0.0	0.10345	-0.15802	
2759.0	0.0	0.10913	-0.1821	
2760.0	0.0	0.10382	-0.22229	
2761.0	0.0	0.11206	-0.25278	
2762.0	0.0	0.10913	-0.29224	
2763.0	0.0	0.11847	-0.32465	
2764.0	0.0	0.11499	-0.35834	
2765.0	0.0	0.12286	-0.39771	
2766.0	0.0	0.11774	-0.43268	
2767.0	0.0	0.12634	-0.45538	
2768.0	0.0	0.12378	-0.49658	
2769.0	0.0	0.13403	-0.52094	
2770.0	0.0	0.13293	-0.5603	
2771.0	0.0	0.14484	-0.58411	
2772.0	0.0	0.14337	-0.62018	
2773.0	0.0	0.15289	-0.65607	
2774.0	0.0	0.15125	-0.70001	
2775.0	0.0	0.16132	-0.7359	
2776.0	0.0	0.16003	-0.77545	
2777.0	0.0	0.17157	-0.80695	
2778.0	0.0	0.16956	-0.84109	
2779.0	0.0	0.17816	-0.86517	
2780.0	0.0	0.17432	-0.90106	
2781.0	0.0	0.18311	-0.91443	
2782.0	0.0	0.17743	-0.94391	
2783.0	0.0	0.18439	-0.95984	
2784.0	0.0	0.17908	-0.98685	
2785.0	0.0	0.18695	-1.00415	
2786.0	0.0	0.18365	-1.02795	
2787.0	0.0	0.19171	-1.03569	
2788.0	0.0	0.1886	-1.05615	
2789.0	0.0	0.19702	-1.05963	
2790.0	0.0	0.19409	-1.07474	
2791.0	0.0	0.2038	-1.07355	
2792.0	0.0	0.20142	-1.08792	
2793.0	0.0	0.21021	-1.08389	
2794.0	0.0	0.20691	-1.09218	
2795.0	0.0	0.21533	-1.08554	
2796.0	0.0	0.21112	-1.08907	
2797.0	0.0	0.21899	-1.07492	
2798.0	0.0	0.21478	-1.07474	
2799.0	0.0	0.22375	-1.05945	
2800.0	0.0	0.21918	-1.05661	
2801.0	0.0	0.22632	-1.03944	
2802.0	0.0	0.22064	-1.04086	
2803.0	0.0	0.22742	-1.02759	
2804.0	0.0	0.22192	-1.02484	
2805.0	0.0	0.22888	-1.01047	
2806.0	0.0	0.22339	-1.01001	
2807.0	0.0	0.23126	-0.99811	
2808.0	0.0	0.22614	-1.00049	
2809.0	0.0	0.23474	-0.98969	
2810.0	0.0	0.2309	-0.99953	
2811.0	0.0	0.2395	-0.9873	
2812.0	0.0	0.23511	-0.99289	
2813.0	0.0	0.245	-0.98245	
2814.0	0.0	0.24078	-0.98914	
2815.0	0.0	0.24939	-0.97879	
2816.0	0.0	0.24573	-0.97746	
2817.0	0.0	0.25378	-0.9668	
2818.0	0.0	0.24921	-0.96716	
2819.0	0.0	0.25653	-0.95215	
2820.0	0.0	0.25342	-0.95453	
2821.0	0.0	0.26257	-0.94519	
2822.0	0.0	0.2601	-0.94766	
2823.0	0.0	0.26843	-0.93823	
2824.0	0.0	0.26147	-0.94043	
2825.0	0.0	0.26752	-0.92834	
2826.0	0.0	0.26257	-0.93141	
2827.0	0.0	0.271	-0.91553	
2828.0	0.0	0.26807	-0.91882	
2829.0	0.0	0.27814	-0.90289	
2830.0	0.0	0.27649	-0.90436	
2831.0	0.0	0.28381	-0.88898	
2832.0	0.0	0.27814	-0.88641	
2833.0	0.0	0.28564	-0.86792	
2834.0	0.0	0.27979	-0.86316	
2835.0	0.0	0.28784	-0.84755	
2836.0	0.0	0.28381	-0.8443	
2837.0	0.0	0.2926	-0.82553	
2838.0	0.0	0.28857	-0.82635	
2839.0	0.0	0.29773	-0.81116	
2840.0	0.0	0.29517	-0.81207	
2841.0	0.0	0.30542	-0.79413	
2842.0	0.0	0.30542	-0.79248	
2843.0	0.0	0.3186	-0.76877	
2844.0	0.0	0.31934	-0.76547	
2845.0	0.0	0.33362	-0.74734	
2846.0	0.0	0.33765	-0.74945	
2847.0	0.0	0.35468	-0.74922	
2848.0	0.0	0.36365	-0.76959	
2849.0	0.0	0.38599	-0.78625	
2850.0	0.0	0.39954	-0.83249	
2851.0	0.0	0.4281	-0.87451	
2852.0	0.0	0.44824	-0.92203	
2853.0	0.0	0.48157	-0.96144	
2854.0	0.0	0.50372	-0.99733	
2855.0	0.0	0.53833	-1.03345	
2856.0	0.0	0.55994	-1.06384	
2857.0	0.0	0.5907	-1.0925	
2858.0	0.0	0.60681	-1.11754	
2859.0	0.0	0.63116	-1.11978	
2860.0	0.0	0.64124	-1.12756	
2861.0	0.0	0.65918	-1.14551	
2862.0	0.0	0.66174	-1.16885	
2863.0	0.0	0.67346	-1.1738	
2864.0	0.0	0.67108	-1.14221	
2865.0	0.0	0.67896	-1.04974	
2866.0	0.0	0.67346	-0.92725	
2867.0	0.0	0.67896	-0.76465	
2868.0	0.0	0.67017	-0.62091	
2869.0	0.0	0.67181	-0.49091	
2870.0	0.0	0.65662	-0.36896	
2871.0	0.0	0.65112	-0.25854	
2872.0	0.0	0.62915	-0.14557	
2873.0	0.0	0.61523	-0.0531	
2874.0	0.0	0.58447	0.04358	
2875.0	0.0	0.56323	0.12927	
2876.0	0.0	0.52844	0.18713	
2877.0	0.0	0.50208	0.22833	
2878.0	0.0	0.46069	0.23511	
2879.0	0.0	0.4259	0.23254	
2880.0	0.0	0.3783	0.20636	
2881.0	0.0	0.34241	0.20343	
2882.0	0.0	0.29517	0.18146	
2883.0	0.0	0.25909	0.16296	
2884.0	0.0	0.21204	0.13824	
2885.0	0.0	0.17487	0.13147	
2886.0	0.0	0.12671	0.09924	
2887.0	0.0	0.08752	0.06665	
2888.0	0.0	0.03534	0.01428	
2889.0	0.0	-0.00861	-0.0412	
2890.0	0.0	-0.065	-0.09943	
2891.0	0.0	-0.11206	-0.14612	
2892.0	0.0	-0.16553	-0.1886	
2893.0	0.0	-0.20435	-0.23071	
2894.0	0.0	-0.24921	-0.27484	
2895.0	0.0	-0.2796	-0.31458	
2896.0	0.0	-0.3197	-0.37408	
2897.0	0.0	-0.34772	-0.42407	
2898.0	0.0	-0.3858	-0.48816	
2899.0	0.0	-0.41455	-0.53833	
2900.0	0.0	-0.45667	-0.59674	
2901.0	0.0	-0.4931	-0.63959	
2902.0	0.0	-0.54584	-0.68408	
2903.0	0.0	-0.595	-0.71008	
2904.0	0.0	-0.64746	-0.73828	
2905.0	0.0	-0.69507	-0.74927	
2906.0	0.0	-0.74121	-0.77435	
2907.0	0.0	-0.78323	-0.78671	
2908.0	0.0	-0.8232	-0.81079	
2909.0	0.0	-0.86078	-0.82864	
2910.0	0.0	-0.89639	-0.85712	
2911.0	0.0	-0.92944	-0.87048	
2912.0	0.0	-0.96167	-0.89648	
2913.0	0.0	-0.98685	-0.90234	
2914.0	0.0	-1.01569	-0.92239	
2915.0	0.0	-1.03061	-0.91791	
2916.0	0.0	-1.05322	-0.92981	
2917.0	0.0	-1.06622	-0.92761	
2918.0	0.0	-1.09094	-0.94363	
2919.0	0.0	-1.10733	-0.94716	
2920.0	0.0	-1.12939	-0.97266	
2921.0	0.0	-1.1434	-0.98245	
2922.0	0.0	-1.164	-1.00406	
2923.0	0.0	-1.17426	-1.0166	
2924.0	0.0	-1.19266	-1.04279	
2925.0	0.0	-1.19879	-1.04919	
2926.0	0.0	-1.21436	-1.07117	
2927.0	0.0	-1.21518	-1.08096	
2928.0	0.0	-1.22571	-1.10431	
2929.0	0.0	-1.22195	-1.11292	
2930.0	0.0	-1.22937	-1.13338	
2931.0	0.0	-1.2242	-1.13937	
2932.0	0.0	-1.23166	-1.15915	
2933.0	0.0	-1.22832	-1.17421	
2934.0	0.0	-1.23866	-1.19412	
2935.0	0.0	-1.23468	-1.20447	
2936.0	0.0	-1.24287	-1.22314	
2937.0	0.0	-1.23788	-1.2301	
2938.0	0.0	-1.24365	-1.24622	
2939.0	0.0	-1.23395	-1.25006	
2940.0	0.0	-1.23221	-1.26544	
2941.0	0.0	-1.21152	-1.26901	
2942.0	0.0	-1.19843	-1.28178	
2943.0	0.0	-1.17	-1.28792	
2944.0	0.0	-1.15155	-1.3006	
2945.0	0.0	-1.12042	-1.30453	
2946.0	0.0	-1.10028	-1.31721	
2947.0	0.0	-1.06892	-1.31827	
2948.0	0.0	-1.05038	-1.32729	
2949.0	0.0	-1.02246	-1.32596	
2950.0	0.0	-1.0058	-1.33649	
2951.0	0.0	-0.97806	-1.33072	
2952.0	0.0	-0.96222	-1.34015	
2953.0	0.0	-0.93704	-1.34468	
2954.0	0.0	-0.92532	-1.35571	
2955.0	0.0	-0.90527	-1.35164	
2956.0	0.0	-0.89795	-1.35745	
2957.0	0.0	-0.88129	-1.35741	
2958.0	0.0	-0.87616	-1.3699	
2959.0	0.0	-0.86206	-1.35992	
2960.0	0.0	-0.86188	-1.37242	
2961.0	0.0	-0.85254	-1.35956	
2962.0	0.0	-0.85693	-1.36894	
2963.0	0.0	-0.85071	-1.36276	
2964.0	0.0	-0.85657	-1.37091	
2965.0	0.0	-0.85089	-1.37059	
2966.0	0.0	-0.85725	-1.3797	
2967.0	0.0	-0.85236	-1.37421	
2968.0	0.0	-0.8584	-1.38968	
2969.0	0.0	-0.85382	-1.38387	
2970.0	0.0	-0.86133	-1.39188	
2971.0	0.0	-0.85895	-1.38162	
2972.0	0.0	-0.86902	-1.38991	
2973.0	0.0	-0.86847	-1.37567	
2974.0	0.0	-0.88055	-1.38506	
2975.0	0.0	-0.88165	-1.37851	
2976.0	0.0	-0.89566	-1.38249	
2977.0	0.0	-0.89882	-1.3775	
2978.0	0.0	-0.91406	-1.38858	
2979.0	0.0	-0.92029	-1.39046	
2980.0	0.0	-0.94006	-1.39435	
2981.0	0.0	-0.95032	-1.3949	
2982.0	0.0	-0.97302	-1.40149	
2983.0	0.0	-0.98749	-1.39265	
2984.0	0.0	-1.01395	-1.40579	
2985.0	0.0	-1.03052	-1.39636	
2986.0	0.0	-1.05908	-1.40012	
2987.0	0.0	-1.07831	-1.39041	
2988.0	0.0	-1.10724	-1.38991	
2989.0	0.0	-1.12509	-1.3819	
2990.0	0.0	-1.15114	-1.39165	
2991.0	0.0	-1.1651	-1.38107	
2992.0	0.0	-1.18776	-1.39297	
2993.0	0.0	-1.19751	-1.39133	
2994.0	0.0	-1.21756	-1.39746	
2995.0	0.0	-1.22452	-1.4003	
2996.0	0.0	-1.24146	-1.4041	
2997.0	0.0	-1.24484	-1.40561	
2998.0	0.0	-1.25789	-1.41096	
2999.0	0.0	-1.2583	-1.41174	
3000.0	0.0	-1.26947	-1.41655	
3001.0	0.0	-1.26929	-1.41005	
3002.0	0.0	-1.28046	-1.41591	
3003.0	0.0	-1.28018	-1.40785	
3004.0	0.0	-1.29103	-1.40341	
3005.0	0.0	-1.28915	-1.38583	
3006.0	0.0	-1.29913	-1.37645	
3007.0	0.0	-1.29639	-1.35516	
3008.0	0.0	-1.30476	-1.34299	
3009.0	0.0	-1.30005	-1.32486	
3010.0	0.0	-1.30673	-1.32193	
3011.0	0.0	-1.3006	-1.31332	
3012.0	0.0	-1.30522	-1.32312	
3013.0	0.0	-1.29776	-1.33095	
3014.0	0.0	-1.30133	-1.34317	
3015.0	0.0	-1.29195	-1.34564	
3016.0	0.0	-1.29346	-1.36006	
3017.0	0.0	-1.28302	-1.35896	
3018.0	0.0	-1.28329	-1.36775	
3019.0	0.0	-1.27121	-1.36807	
3020.0	0.0	-1.2691	-1.37572	
3021.0	0.0	-1.25519	-1.37677	
3022.0	0.0	-1.25153	-1.38277	
3023.0	0.0	-1.23724	-1.3819	
3024.0	0.0	-1.23495	-1.3938	
3025.0	0.0	-1.2204	-1.39297	
3026.0	0.0	-1.21729	-1.3997	
3027.0	0.0	-1.20309	-1.39325	
3028.0	0.0	-1.20099	-1.40012	
3029.0	0.0	-1.18744	-1.39398	
3030.0	0.0	-1.18396	-1.4024	
3031.0	0.0	-1.16803	-1.39723	
3032.0	0.0	-1.16318	-1.40598	
3033.0	0.0	-1.14697	-1.40154	
3034.0	0.0	-1.14349	-1.40483	
3035.0	0.0	-1.13004	-1.40337	
3036.0	0.0	-1.12793	-1.41179	
3037.0	0.0	-1.11603	-1.4068	
3038.0	0.0	-1.11649	-1.41426	
3039.0	0.0	-1.10719	-1.40767	
3040.0	0.0	-1.10971	-1.4165	
3041.0	0.0	-1.10193	-1.4057	
3042.0	0.0	-1.10486	-1.41193	
3043.0	0.0	-1.09763	-1.40753	
3044.0	0.0	-1.10307	-1.41541	
3045.0	0.0	-1.09964	-1.40543	
3046.0	0.0	-1.10889	-1.41339	
3047.0	0.0	-1.10999	-1.40314	
3048.0	0.0	-1.12418	-1.40996	
3049.0	0.0	-1.12848	-1.40891	
3050.0	0.0	-1.14427	-1.4144	
3051.0	0.0	-1.15091	-1.40735	
3052.0	0.0	-1.16895	-1.41458	
3053.0	0.0	-1.17599	-1.40506	
3054.0	0.0	-1.19257	-1.41609	
3055.0	0.0	-1.19733	-1.40881	
3056.0	0.0	-1.21198	-1.41934	
3057.0	0.0	-1.21381	-1.4176	
3058.0	0.0	-1.22543	-1.42456	
3059.0	0.0	-1.22456	-1.41934	
3060.0	0.0	-1.23376	-1.42236	
3061.0	0.0	-1.23184	-1.41719	
3062.0	0.0	-1.23898	-1.42195	
3063.0	0.0	-1.23299	-1.41119	
3064.0	0.0	-1.23541	-1.41605	
3065.0	0.0	-1.22516	-1.40904	
3066.0	0.0	-1.22388	-1.41188	
3067.0	0.0	-1.20959	-1.39966	
3068.0	0.0	-1.20461	-1.40199	
3069.0	0.0	-1.18753	-1.39037	
3070.0	0.0	-1.18085	-1.39087	
3071.0	0.0	-1.16263	-1.38579	
3072.0	0.0	-1.15585	-1.3878	
3073.0	0.0	-1.13997	-1.38121	
3074.0	0.0	-1.13498	-1.38542	
3075.0	0.0	-1.11914	-1.37686	
3076.0	0.0	-1.11383	-1.37677	
3077.0	0.0	-1.0979	-1.36917	
3078.0	0.0	-1.09058	-1.37155	
3079.0	0.0	-1.07263	-1.36075	
3080.0	0.0	-1.06471	-1.35782	
3081.0	0.0	-1.04695	-1.34843	
3082.0	0.0	-1.03931	-1.34473	
3083.0	0.0	-1.02164	-1.33786	
3084.0	0.0	-1.01477	-1.3423	
3085.0	0.0	-0.99792	-1.33498	
3086.0	0.0	-0.99106	-1.33768	
3087.0	0.0	-0.97348	-1.32184	
3088.0	0.0	-0.96597	-1.31914	
3089.0	0.0	-0.94849	-1.306	
3090.0	0.0	-0.94263	-1.30431	
3091.0	0.0	-0.92688	-1.28879	
3092.0	0.0	-0.92244	-1.28563	
3093.0	0.0	-0.90857	-1.26846	
3094.0	0.0	-0.90527	-1.26801	
3095.0	0.0	-0.89127	-1.25171	
3096.0	0.0	-0.88861	-1.24585	
3097.0	0.0	-0.87579	-1.22159	
3098.0	0.0	-0.8736	-1.21472	
3099.0	0.0	-0.86105	-1.19211	
3100.0	0.0	-0.85904	-1.17563	
3101.0	0.0	-0.8475	-1.14821	
3102.0	0.0	-0.84705	-1.13416	
3103.0	0.0	-0.83752	-1.10934	
3104.0	0.0	-0.83862	-1.1033	
3105.0	0.0	-0.83057	-1.07904	
3106.0	0.0	-0.8324	-1.07831	
3107.0	0.0	-0.82416	-1.06403	
3108.0	0.0	-0.82635	-1.05679	
3109.0	0.0	-0.81812	-1.05103	
3110.0	0.0	-0.81976	-1.04416	
3111.0	0.0	-0.81097	-1.03482	
3112.0	0.0	-0.81061	-1.03079	
3113.0	0.0	-0.79916	-1.01514	
3114.0	0.0	-0.79614	-1.01047	
3115.0	0.0	-0.78223	-0.99554	
3116.0	0.0	-0.77637	-0.99051	
3117.0	0.0	-0.76044	-0.97513	
3118.0	0.0	-0.75311	-0.98122	
3119.0	0.0	-0.73572	-0.97247	
3120.0	0.0	-0.72684	-0.97343	
3121.0	0.0	-0.70789	-0.96021	
3122.0	0.0	-0.69781	-0.96643	
3123.0	0.0	-0.67767	-0.95837	
3124.0	0.0	-0.66632	-0.95535	
3125.0	0.0	-0.64412	-0.9472	
3126.0	0.0	-0.63043	-0.94208	
3127.0	0.0	-0.60645	-0.92999	
3128.0	0.0	-0.59161	-0.93118	
3129.0	0.0	-0.56781	-0.91205	
3130.0	0.0	-0.55573	-0.9071	
3131.0	0.0	-0.5376	-0.89667	
3132.0	0.0	-0.52936	-0.89529	
3133.0	0.0	-0.51288	-0.88664	
3134.0	0.0	-0.5061	-0.88641	
3135.0	0.0	-0.48926	-0.88019	
3136.0	0.0	-0.48157	-0.8844	
3137.0	0.0	-0.4671	-0.8735	
3138.0	0.0	-0.46399	-0.87799	
3139.0	0.0	-0.45209	-0.86142	
3140.0	0.0	-0.44916	-0.86334	
3141.0	0.0	-0.43634	-0.84338	
3142.0	0.0	-0.43195	-0.84357	
3143.0	0.0	-0.41968	-0.83826	
3144.0	0.0	-0.41748	-0.83473	
3145.0	0.0	-0.40704	-0.8161	
3146.0	0.0	-0.40741	-0.81409	
3147.0	0.0	-0.40009	-0.80438	
3148.0	0.0	-0.40302	-0.8042	
3149.0	0.0	-0.39725	-0.79504	
3150.0	0.0	-0.40265	-0.79028	
3151.0	0.0	-0.39917	-0.78799	
3152.0	0.0	-0.40613	-0.78955	
3153.0	0.0	-0.40338	-0.78955	
3154.0	0.0	-0.40869	-0.79349	
3155.0	0.0	-0.40356	-0.78955	
3156.0	0.0	-0.40613	-0.79211	
3157.0	0.0	-0.39807	-0.78488	
3158.0	0.0	-0.39771	-0.78653	
3159.0	0.0	-0.38635	-0.77097	
3160.0	0.0	-0.38232	-0.77161	
3161.0	0.0	-0.36877	-0.76593	
3162.0	0.0	-0.36273	-0.75673	
3163.0	0.0	-0.3479	-0.74304	
3164.0	0.0	-0.34113	-0.74048	
3165.0	0.0	-0.3252	-0.72986	
3166.0	0.0	-0.31842	-0.73132	
3167.0	0.0	-0.30286	-0.7197	
3168.0	0.0	-0.2959	-0.71658	
3169.0	0.0	-0.28015	-0.70789	
3170.0	0.0	-0.27228	-0.69708	
3171.0	0.0	-0.25598	-0.69104	
3172.0	0.0	-0.24902	-0.68225	
3173.0	0.0	-0.23291	-0.67282	
3174.0	0.0	-0.2254	-0.66742	
3175.0	0.0	-0.20947	-0.66586	
3176.0	0.0	-0.20361	-0.66559	
3177.0	0.0	-0.18988	-0.64984	
3178.0	0.0	-0.18604	-0.64975	
3179.0	0.0	-0.17432	-0.63373	
3180.0	0.0	-0.1723	-0.6373	
3181.0	0.0	-0.16205	-0.62769	
3182.0	0.0	-0.16187	-0.61963	
3183.0	0.0	-0.15601	-0.61761	
3184.0	0.0	-0.15967	-0.61505	
3185.0	0.0	-0.15472	-0.61615	
3186.0	0.0	-0.15784	-0.61908	
3187.0	0.0	-0.15051	-0.61707	
3188.0	0.0	-0.15198	-0.6188	
3189.0	0.0	-0.14374	-0.60846	
3190.0	0.0	-0.14392	-0.61652	
3191.0	0.0	-0.13678	-0.60654	
3192.0	0.0	-0.1377	-0.60938	
3193.0	0.0	-0.13037	-0.60645	
3194.0	0.0	-0.12946	-0.59839	
3195.0	0.0	-0.11829	-0.59564	
3196.0	0.0	-0.11462	-0.59473	
3197.0	0.0	-0.10327	-0.59665	
3198.0	0.0	-0.10016	-0.6037	
3199.0	0.0	-0.08826	-0.60406	
3200.0	0.0	-0.08405	-0.61121	
3201.0	0.0	-0.07031	-0.60754	
3202.0	0.0	-0.06427	-0.61185	
3203.0	0.0	-0.04962	-0.6026	
3204.0	0.0	-0.04358	-0.59363	
3205.0	0.0	-0.02948	-0.58356	
3206.0	0.0	-0.02563	-0.57715	
3207.0	0.0	-0.01392	-0.57367	
3208.0	0.0	-0.00952	-0.57166	
3209.0	0.0	0.00403	-0.5668	
3210.0	0.0	0.00861	-0.56067	
3211.0	0.0	0.02142	-0.5647	
3212.0	0.0	0.02435	-0.56708	
3213.0	0.0	0.03369	-0.5592	
3214.0	0.0	0.03296	-0.57367	
3215.0	0.0	0.03937	-0.56973	
3216.0	0.0	0.03754	-0.5799	
3217.0	0.0	0.04395	-0.57532	
3218.0	0.0	0.04285	-0.57166	
3219.0	0.0	0.04944	-0.56818	
3220.0	0.0	0.04889	-0.57404	
3221.0	0.0	0.0564	-0.56351	
3222.0	0.0	0.05566	-0.56964	
3223.0	0.0	0.06152	-0.5517	
3224.0	0.0	0.05933	-0.55971	
3225.0	0.0	0.06262	-0.54803	
3226.0	0.0	0.05859	-0.54437	
3227.0	0.0	0.06244	-0.54291	
3228.0	0.0	0.05914	-0.54291	
3229.0	0.0	0.06372	-0.53577	
3230.0	0.0	0.06006	-0.54254	
3231.0	0.0	0.06372	-0.53577	
3232.0	0.0	0.06024	-0.54726	
3233.0	0.0	0.06445	-0.54419	
3234.0	0.0	0.06152	-0.54272	
3235.0	0.0	0.0661	-0.53311	
3236.0	0.0	0.06335	-0.5213	
3237.0	0.0	0.06812	-0.51324	
3238.0	0.0	0.06409	-0.50793	
3239.0	0.0	0.06702	-0.49878	
3240.0	0.0	0.06335	-0.50189	
3241.0	0.0	0.06628	-0.48669	
3242.0	0.0	0.06335	-0.48523	
3243.0	0.0	0.06738	-0.47772	
3244.0	0.0	0.06445	-0.46509	
3245.0	0.0	0.0683	-0.46394	
3246.0	0.0	0.065	-0.46637	
3247.0	0.0	0.07031	-0.4541	
3248.0	0.0	0.0683	-0.4519	
3249.0	0.0	0.07489	-0.45547	
3250.0	0.0	0.07489	-0.45209	
3251.0	0.0	0.0813	-0.45154	
3252.0	0.0	0.0813	-0.45245	
3253.0	0.0	0.08826	-0.45538	
3254.0	0.0	0.08752	-0.45593	
3255.0	0.0	0.09521	-0.45447	
3256.0	0.0	0.09613	-0.45465	
3257.0	0.0	0.10529	-0.45172	
3258.0	0.0	0.1062	-0.45062	
3259.0	0.0	0.11426	-0.43286	
3260.0	0.0	0.11426	-0.43423	
3261.0	0.0	0.1214	-0.41235	
3262.0	0.0	0.12122	-0.41638	
3263.0	0.0	0.12781	-0.39276	
3264.0	0.0	0.12799	-0.38727	
3265.0	0.0	0.13605	-0.38901	
3266.0	0.0	0.13696	-0.38855	
3267.0	0.0	0.14502	-0.38434	
3268.0	0.0	0.14575	-0.38745	
3269.0	0.0	0.15308	-0.37061	
3270.0	0.0	0.15381	-0.38086	
3271.0	0.0	0.1593	-0.36584	
3272.0	0.0	0.15674	-0.36401	
3273.0	0.0	0.16168	-0.35266	
3274.0	0.0	0.15967	-0.34882	
3275.0	0.0	0.16736	-0.32153	
3276.0	0.0	0.16736	-0.30157	
3277.0	0.0	0.17377	-0.2796	
3278.0	0.0	0.17285	-0.24884	
3279.0	0.0	0.17651	-0.22119	
3280.0	0.0	0.17322	-0.18658	
3281.0	0.0	0.17725	-0.15802	
3282.0	0.0	0.17542	-0.14246	
3283.0	0.0	0.17999	-0.13037	
3284.0	0.0	0.17871	-0.12836	
3285.0	0.0	0.18365	-0.12067	
3286.0	0.0	0.18164	-0.12195	
3287.0	0.0	0.1853	-0.11353	
3288.0	0.0	0.18274	-0.11298	
3289.0	0.0	0.18677	-0.10034	
3290.0	0.0	0.18402	-0.09503	
3291.0	0.0	0.18823	-0.08203	
3292.0	0.0	0.18494	-0.07635	
3293.0	0.0	0.1875	-0.06409	
3294.0	0.0	0.18237	-0.06299	
3295.0	0.0	0.18311	-0.0564	
3296.0	0.0	0.17651	-0.05988	
3297.0	0.0	0.17432	-0.05768	
3298.0	0.0	0.16589	-0.06372	
3299.0	0.0	0.16351	-0.06116	
3300.0	0.0	0.15601	-0.06573	
3301.0	0.0	0.15601	-0.05566	
3302.0	0.0	0.15125	-0.05392	
3303.0	0.0	0.15454	-0.0412	
3304.0	0.0	0.15381	-0.04321	
3305.0	0.0	0.15967	-0.03149	
3306.0	0.0	0.16003	-0.0293	
3307.0	0.0	0.16718	-0.0152	
3308.0	0.0	0.16846	-0.0174	
3309.0	0.0	0.17615	-0.01135	
3310.0	0.0	0.17834	-0.0152	
3311.0	0.0	0.1875	-0.01025	
3312.0	0.0	0.19135	-0.01025	
3313.0	0.0	0.20142	-0.0011	
3314.0	0.0	0.20581	-0.0033	
3315.0	0.0	0.21533	0.00989	
3316.0	0.0	0.21899	0.0163	
3317.0	0.0	0.2287	0.03387	
3318.0	0.0	0.23108	0.03909	
3319.0	0.0	0.24042	0.05969	
3320.0	0.0	0.24335	0.06537	
3321.0	0.0	0.25232	0.07269	
3322.0	0.0	0.25488	0.08405	
3323.0	0.0	0.26367	0.09119	
3324.0	0.0	0.2666	0.09448	
3325.0	0.0	0.27612	0.09851	
3326.0	0.0	0.27942	0.1095	
3327.0	0.0	0.28912	0.11884	
3328.0	0.0	0.29297	0.12305	
3329.0	0.0	0.30121	0.12836	
3330.0	0.0	0.30396	0.12955	
3331.0	0.0	0.31311	0.14282	
3332.0	0.0	0.31586	0.14282	
3333.0	0.0	0.3252	0.1485	
3334.0	0.0	0.32849	0.14795	
3335.0	0.0	0.33838	0.14703	
3336.0	0.0	0.34277	0.15344	
3337.0	0.0	0.35266	0.15399	
3338.0	0.0	0.35779	0.15601	
3339.0	0.0	0.36768	0.16351	
3340.0	0.0	0.37244	0.16022	
3341.0	0.0	0.38306	0.16333	
3342.0	0.0	0.38818	0.15802	
3343.0	0.0	0.3999	0.15967	
3344.0	0.0	0.40686	0.15308	
3345.0	0.0	0.41895	0.14685	
3346.0	0.0	0.42627	0.13806	
3347.0	0.0	0.43945	0.13513	
3348.0	0.0	0.44751	0.13202	
3349.0	0.0	0.46216	0.12964	
3350.0	0.0	0.47168	0.12451	
3351.0	0.0	0.48743	0.12598	
3352.0	0.0	0.49805	0.1203	
3353.0	0.0	0.51416	0.12451	
3354.0	0.0	0.52551	0.11353	
3355.0	0.0	0.54309	0.11371	
3356.0	0.0	0.55518	0.11298	
3357.0	0.0	0.57312	0.10986	
3358.0	0.0	0.58594	0.10785	
3359.0	0.0	0.60315	0.11224	
3360.0	0.0	0.61542	0.1084	
3361.0	0.0	0.63354	0.11646	
3362.0	0.0	0.64563	0.11737	
3363.0	0.0	0.66357	0.13321	
3364.0	0.0	0.67603	0.14062	
3365.0	0.0	0.69434	0.14209	
3366.0	0.0	0.70532	0.15546	
3367.0	0.0	0.72107	0.16022	
3368.0	0.0	0.73169	0.17212	
3369.0	0.0	0.74707	0.17578	
3370.0	0.0	0.75806	0.18768	
3371.0	0.0	0.7749	0.18658	
3372.0	0.0	0.78845	0.1842	
3373.0	0.0	0.80658	0.18777	
3374.0	0.0	0.81921	0.19395	
3375.0	0.0	0.83588	0.1886	
3376.0	0.0	0.84851	0.19391	
3377.0	0.0	0.86499	0.19226	
3378.0	0.0	0.87616	0.18677	
3379.0	0.0	0.89355	0.19954	
3380.0	0.0	0.90527	0.19318	
3381.0	0.0	0.92139	0.19757	
3382.0	0.0	0.93237	0.19739	
3383.0	0.0	0.94739	0.21533	
3384.0	0.0	0.95654	0.21771	
3385.0	0.0	0.97009	0.22375	
3386.0	0.0	0.97797	0.24207	
3387.0	0.0	0.98822	0.25397	
3388.0	0.0	0.99353	0.24225	
3389.0	0.0	1.00232	0.24792	
3390.0	0.0	1.00635	0.24426	
3391.0	0.0	1.01367	0.25012	
3392.0	0.0	1.0155	0.25214	
3393.0	0.0	1.021	0.2536	
3394.0	0.0	1.02173	0.2406	
3395.0	0.0	1.02539	0.24243	
3396.0	0.0	1.02686	0.23712	
3397.0	0.0	1.03198	0.24701	
3398.0	0.0	1.03271	0.24536	
3399.0	0.0	1.03766	0.26825	
3400.0	0.0	1.03748	0.26074	
3401.0	0.0	1.04224	0.27063	
3402.0	0.0	1.0426	0.27393	
3403.0	0.0	1.04663	0.28088	
3404.0	0.0	1.047	0.29114	
3405.0	0.0	1.05139	0.30103	
3406.0	0.0	1.05066	0.2937	
3407.0	0.0	1.05432	0.2981	
3408.0	0.0	1.05396	0.29535	
3409.0	0.0	1.0578	0.3078	
3410.0	0.0	1.05762	0.31586	
3411.0	0.0	1.06274	0.31512	
3412.0	0.0	1.06348	0.33215	
3413.0	0.0	1.06897	0.32739	
3414.0	0.0	1.0697	0.33435	
3415.0	0.0	1.07483	0.35303	
3416.0	0.0	1.07593	0.34598	
3417.0	0.0	1.08105	0.35486	
3418.0	0.0	1.08105	0.36182	
3419.0	0.0	1.08398	0.36731	
3420.0	0.0	1.08398	0.37115	
3421.0	0.0	1.08691	0.37848	
3422.0	0.0	1.08582	0.39203	
3423.0	0.0	1.08801	0.38672	
3424.0	0.0	1.08618	0.38892	
3425.0	0.0	1.08765	0.40686	
3426.0	0.0	1.08618	0.39111	
3427.0	0.0	1.08801	0.40997	
3428.0	0.0	1.08801	0.39441	
3429.0	0.0	1.09204	0.40979	
3430.0	0.0	1.09241	0.39844	
3431.0	0.0	1.09607	0.40594	
3432.0	0.0	1.09644	0.42499	
3433.0	0.0	1.1001	0.4314	
3434.0	0.0	1.09937	0.43506	
3435.0	0.0	1.10046	0.44824	
3436.0	0.0	1.099	0.44073	
3437.0	0.0	1.09827	0.44678	
3438.0	0.0	1.0946	0.4455	
3439.0	0.0	1.09497	0.46326	
3440.0	0.0	1.09277	0.4585	
3441.0	0.0	1.09534	0.46344	
3442.0	0.0	1.09607	0.45831	
3443.0	0.0	1.1001	0.45209	
3444.0	0.0	1.10248	0.45154	
3445.0	0.0	1.10889	0.45337	
3446.0	0.0	1.11108	0.45813	
3447.0	0.0	1.11731	0.46106	
3448.0	0.0	1.12097	0.47314	
3449.0	0.0	1.12793	0.4812	
3450.0	0.0	1.13232	0.48248	
3451.0	0.0	1.14038	0.49731	
3452.0	0.0	1.14661	0.49622	
3453.0	0.0	1.15576	0.51297	
3454.0	0.0	1.16345	0.505	
3455.0	0.0	1.17407	0.51764	
3456.0	0.0	1.18213	0.52094	
3457.0	0.0	1.19495	0.51709	
3458.0	0.0	1.20337	0.53137	
3459.0	0.0	1.21619	0.53888	
3460.0	0.0	1.22461	0.5387	
3461.0	0.0	1.2356	0.55316	
3462.0	0.0	1.24237	0.55444	
3463.0	0.0	1.25171	0.55188	
3464.0	0.0	1.25757	0.55023	
3465.0	0.0	1.26599	0.54858	
3466.0	0.0	1.27222	0.54803	
3467.0	0.0	1.28027	0.54108	
3468.0	0.0	1.28503	0.53888	
3469.0	0.0	1.29236	0.54712	
3470.0	0.0	1.29565	0.54089	
3471.0	0.0	1.30188	0.5517	
3472.0	0.0	1.30518	0.55829	
3473.0	0.0	1.3103	0.55692	
3474.0	0.0	1.31323	0.55975	
3475.0	0.0	1.31909	0.57751	
3476.0	0.0	1.32129	0.57275	
3477.0	0.0	1.32422	0.58191	
3478.0	0.0	1.32349	0.58905	
3479.0	0.0	1.32495	0.60626	
3480.0	0.0	1.32495	0.61652	
3481.0	0.0	1.32898	0.63721	
3482.0	0.0	1.33081	0.6416	
3483.0	0.0	1.33484	0.66193	
3484.0	0.0	1.33557	0.67255	
3485.0	0.0	1.33887	0.6795	
3486.0	0.0	1.34015	0.69507	
3487.0	0.0	1.34326	0.7077	
3488.0	0.0	1.34473	0.71613	
3489.0	0.0	1.34912	0.72766	
3490.0	0.0	1.35022	0.7381	
3491.0	0.0	1.35388	0.74597	
3492.0	0.0	1.35352	0.76373	
3493.0	0.0	1.35791	0.776	
3494.0	0.0	1.35718	0.78406	
3495.0	0.0	1.35938	0.79962	
3496.0	0.0	1.35901	0.80896	
3497.0	0.0	1.36121	0.82617	
3498.0	0.0	1.36157	0.83478	
3499.0	0.0	1.36304	0.84668	
3500.0	0.0	1.36194	0.8551	
3501.0	0.0	1.3623	0.867	
3502.0	0.0	1.36157	0.87323	
3503.0	0.0	1.36267	0.88202	
3504.0	0.0	1.36121	0.88806	
3505.0	0.0	1.3623	0.89502	
3506.0	0.0	1.36157	0.89996	
3507.0	0.0	1.3623	0.90546	
3508.0	0.0	1.36047	0.90894	
3509.0	0.0	1.36084	0.91516	
3510.0	0.0	1.35828	0.91919	
3511.0	0.0	1.35681	0.92578	
3512.0	0.0	1.35352	0.92871	
3513.0	0.0	1.35168	0.9353	
3514.0	0.0	1.34802	0.93878	
3515.0	0.0	1.34546	0.94318	
3516.0	0.0	1.34143	0.94519	
3517.0	0.0	1.33813	0.94592	
3518.0	0.0	1.33447	0.94519	
3519.0	0.0	1.33301	0.94574	
3520.0	0.0	1.33008	0.93896	
3521.0	0.0	1.32788	0.93475	
3522.0	0.0	1.3244	0.9256	
3523.0	0.0	1.32166	0.91937	
3524.0	0.0	1.31763	0.9082	
3525.0	0.0	1.3147	0.90051	
3526.0	0.0	1.30994	0.88861	
3527.0	0.0	1.30811	0.88037	
3528.0	0.0	1.30408	0.86938	
3529.0	0.0	1.30261	0.86096	
3530.0	0.0	1.2995	0.84741	
3531.0	0.0	1.2995	0.83551	
3532.0	0.0	1.29785	0.82251	
3533.0	0.0	1.29602	0.80878	
3534.0	0.0	1.29382	0.79706	
3535.0	0.0	1.29126	0.78845	
3536.0	0.0	1.29016	0.77417	
3537.0	0.0	1.28796	0.76758	
3538.0	0.0	1.28613	0.75604	
3539.0	0.0	1.28448	0.75	
3540.0	0.0	1.28174	0.74231	
3541.0	0.0	1.28027	0.73499	
3542.0	0.0	1.27698	0.72766	
3543.0	0.0	1.27368	0.72144	
3544.0	0.0	1.26892	0.711	
3545.0	0.0	1.26526	0.70898	
3546.0	0.0	1.26068	0.70294	
3547.0	0.0	1.2561	0.69653	
3548.0	0.0	1.25061	0.68884	
3549.0	0.0	1.24622	0.69067	
3550.0	0.0	1.23962	0.68188	
3551.0	0.0	1.23523	0.68225	
3552.0	0.0	1.23175	0.6817	
3553.0	0.0	1.22681	0.685	
3554.0	0.0	1.22205	0.69031	
3555.0	0.0	1.21838	0.68793	
3556.0	0.0	1.21436	0.69269	
3557.0	0.0	1.21033	0.69708	
3558.0	0.0	1.20575	0.69873	
3559.0	0.0	1.20264	0.70908	
3560.0	0.0	1.20007	0.71558	
3561.0	0.0	1.19971	0.7229	
3562.0	0.0	1.19934	0.73444	
3563.0	0.0	1.19971	0.7467	
3564.0	0.0	1.19751	0.75732	
3565.0	0.0	1.19531	0.76959	
3566.0	0.0	1.19312	0.7793	
3567.0	0.0	1.19275	0.79083	
3568.0	0.0	1.19458	0.80219	
3569.0	0.0	1.19714	0.81244	
3570.0	0.0	1.20044	0.82031	
3571.0	0.0	1.2041	0.82892	
3572.0	0.0	1.20703	0.83569	
3573.0	0.0	1.20886	0.8454	
3574.0	0.0	1.21033	0.85474	
3575.0	0.0	1.21143	0.87012	
3576.0	0.0	1.21252	0.88312	
3577.0	0.0	1.21399	0.8985	
3578.0	0.0	1.21545	0.91351	
3579.0	0.0	1.21729	0.92725	
3580.0	0.0	1.21875	0.94299	
3581.0	0.0	1.21985	0.95984	
3582.0	0.0	1.22168	0.96991	
3583.0	0.0	1.22168	0.98291	
3584.0	0.0	1.22241	0.99152	
3585.0	0.0	1.22314	1.00104	
3586.0	0.0	1.22424	1.00525	
3587.0	0.0	1.22498	1.01111	
3588.0	0.0	1.22424	1.01971	
3589.0	0.0	1.22314	1.02704	
3590.0	0.0	1.22424	1.03308	
3591.0	0.0	1.22571	1.03876	
3592.0	0.0	1.22937	1.04956	
3593.0	0.0	1.2334	1.05249	
3594.0	0.0	1.23743	1.06146	
3595.0	0.0	1.24072	1.06989	
3596.0	0.0	1.24365	1.07135	
3597.0	0.0	1.24548	1.07812	
3598.0	0.0	1.24695	1.0827	
3599.0	0.0	1.24768	1.08545	
3600.0	0.0	1.24731	1.09305	
3601.0	0.0	1.24731	1.0968	
3602.0	0.0	1.24695	1.10394	
3603.0	0.0	1.24603	1.1153	
3604.0	0.0	1.24603	1.12317	
3605.0	0.0	1.24548	1.13306	
3606.0	0.0	1.24603	1.13086	
3607.0	0.0	1.24622	1.13947	
3608.0	0.0	1.2464	1.13654	
3609.0	0.0	1.24658	1.14368	
3610.0	0.0	1.24768	1.14185	
3611.0	0.0	1.24731	1.13704	
3612.0	0.0	1.24731	1.13818	
3613.0	0.0	1.24731	1.13068	
3614.0	0.0	1.24805	1.13306	
3615.0	0.0	1.24878	1.12903	
3616.0	0.0	1.25024	1.13232	
3617.0	0.0	1.25098	1.12885	
3618.0	0.0	1.25208	1.12756	
3619.0	0.0	1.25281	1.13013	
3620.0	0.0	1.25464	1.12976	
3621.0	0.0	1.2561	1.13416	
3622.0	0.0	1.25757	1.13269	
3623.0	0.0	1.25757	1.12701	
3624.0	0.0	1.25922	1.12793	
3625.0	0.0	1.25903	1.12518	
3626.0	0.0	1.2605	1.11951	
3627.0	0.0	1.26086	1.11987	
3628.0	0.0	1.25995	1.11658	
3629.0	0.0	1.25922	1.11987	
3630.0	0.0	1.25903	1.12152	
3631.0	0.0	1.25867	1.12903	
3632.0	0.0	1.25977	1.13232	
3633.0	0.0	1.26013	1.14368	
3634.0	0.0	1.26123	1.14716	
3635.0	0.0	1.26196	1.15576	
3636.0	0.0	1.26233	1.16748	
3637.0	0.0	1.26178	1.17224	
3638.0	0.0	1.2627	1.18121	
3639.0	0.0	1.26343	1.18652	
3640.0	0.0	1.26453	1.1911	
3641.0	0.0	1.2616	1.19952	
3642.0	0.0	1.2572	1.20868	
3643.0	0.0	1.25098	1.216	
3644.0	0.0	1.2464	1.216	
3645.0	0.0	1.24072	1.23175	
3646.0	0.0	1.23999	1.23962	
3647.0	0.0	1.24182	1.2486	
3648.0	0.0	1.24512	1.25171	
3649.0	0.0	1.24731	1.26508	
3650.0	0.0	1.25024	1.2659	
3651.0	0.0	1.25226	1.27277	
3652.0	0.0	1.25537	1.27551	
3653.0	0.0	1.2572	1.29108	
3654.0	0.0	1.26123	1.29254	
3655.0	0.0	1.26526	1.30151	
3656.0	0.0	1.2691	1.30701	
3657.0	0.0	1.27295	1.30591	
3658.0	0.0	1.27588	1.31213	
3659.0	0.0	1.27734	1.31946	
3660.0	0.0	1.27954	1.32129	
3661.0	0.0	1.28027	1.32422	
3662.0	0.0	1.28247	1.33136	
3663.0	0.0	1.28357	1.33136	
3664.0	0.0	1.28613	1.33154	
3665.0	0.0	1.2865	1.33594	
3666.0	0.0	1.28723	1.33447	
3667.0	0.0	1.2876	1.34418	
3668.0	0.0	1.28687	1.33942	
3669.0	0.0	1.28577	1.33997	
3670.0	0.0	1.2832	1.34052	
3671.0	0.0	1.27954	1.33978	
3672.0	0.0	1.27588	1.34802	
3673.0	0.0	1.26929	1.34967	
3674.0	0.0	1.26306	1.34619	
3675.0	0.0	1.25464	1.34784	
3676.0	0.0	1.24878	1.34839	
3677.0	0.0	1.23962	1.35205	
3678.0	0.0	1.2334	1.35132	
3679.0	0.0	1.22552	1.3493	
3680.0	0.0	1.21838	1.36194	
3681.0	0.0	1.21143	1.36267	
3682.0	0.0	1.2041	1.35883	
3683.0	0.0	1.19678	1.36176	
3684.0	0.0	1.19055	1.36395	
3685.0	0.0	1.18396	1.36652	
3686.0	0.0	1.1792	1.36194	
3687.0	0.0	1.17426	1.36194	
3688.0	0.0	1.17114	1.3667	
3689.0	0.0	1.16785	1.37109	
3690.0	0.0	1.16565	1.36707	
3691.0	0.0	1.16162	1.36853	
3692.0	0.0	1.15869	1.36487	
3693.0	0.0	1.15723	1.36597	
3694.0	0.0	1.15503	1.37256	
3695.0	0.0	1.1521	1.36816	
3696.0	0.0	1.1521	1.37476	
3697.0	0.0	1.14954	1.36963	
3698.0	0.0	1.15063	1.3689	
3699.0	0.0	1.14917	1.37054	
3700.0	0.0	1.1499	1.37292	
3701.0	0.0	1.1499	1.37128	
3702.0	0.0	1.14954	1.37897	
3703.0	0.0	1.14917	1.37769	
3704.0	0.0	1.14825	1.37292	
3705.0	0.0	1.14661	1.3802	
3706.0	0.0	1.14514	1.38098	
3707.0	0.0	1.14258	1.37787	
3708.0	0.0	1.1413	1.37787	
3709.0	0.0	1.138	1.37549	
3710.0	0.0	1.13379	1.37842	
3711.0	0.0	1.12866	1.37512	
3712.0	0.0	1.12573	1.38313	
3713.0	0.0	1.12207	1.37787	
3714.0	0.0	1.12061	1.383	
3715.0	0.0	1.11914	1.38263	
3716.0	0.0	1.11658	1.37842	
3717.0	0.0	1.11145	1.38007	
3718.0	0.0	1.10669	1.38666	
3719.0	0.0	1.10303	1.37988	
3720.0	0.0	1.10266	1.37659	
3721.0	0.0	1.10376	1.38208	
3722.0	0.0	1.10815	1.38226	
3723.0	0.0	1.11182	1.37531	
3724.0	0.0	1.11804	1.37476	
3725.0	0.0	1.1228	1.37274	
3726.0	0.0	1.13031	1.37366	
3727.0	0.0	1.13525	1.37622	
3728.0	0.0	1.14185	1.37585	
3729.0	0.0	1.14551	1.37842	
3730.0	0.0	1.1499	1.37988	
3731.0	0.0	1.1521	1.38208	
3732.0	0.0	1.15393	1.37549	
3733.0	0.0	1.15283	1.37915	
3734.0	0.0	1.15521	1.37769	
3735.0	0.0	1.1543	1.37512	
3736.0	0.0	1.15649	1.37219	
3737.0	0.0	1.15576	1.36743	
3738.0	0.0	1.15759	1.37329	
3739.0	0.0	1.15576	1.36981	
3740.0	0.0	1.15466	1.37256	
3741.0	0.0	1.15045	1.36523	
3742.0	0.0	1.14734	1.36761	
3743.0	0.0	1.14294	1.37054	
3744.0	0.0	1.13965	1.37256	
3745.0	0.0	1.13452	1.36835	
3746.0	0.0	1.13159	1.36725	
3747.0	0.0	1.1272	1.37494	
3748.0	0.0	1.125	1.37604	
3749.0	0.0	1.1217	1.37531	
3750.0	0.0	1.12061	1.37494	
3751.0	0.0	1.11658	1.38245	
3752.0	0.0	1.11475	1.38208	
3753.0	0.0	1.10999	1.38007	
3754.0	0.0	1.10706	1.37732	
3755.0	0.0	1.1012	1.37842	
3756.0	0.0	1.0968	1.37476	
3757.0	0.0	1.09076	1.38428	
3758.0	0.0	1.08582	1.37897	
3759.0	0.0	1.07959	1.37897	
3760.0	0.0	1.07373	1.37988	
3761.0	0.0	1.06714	1.37421	
3762.0	0.0	1.06055	1.36688	
3763.0	0.0	1.05322	1.36304	
3764.0	0.0	1.04773	1.36212	
3765.0	0.0	1.0426	1.35333	
3766.0	0.0	1.03931	1.34729	
3767.0	0.0	1.03601	1.34619	
3768.0	0.0	1.03638	1.33374	
3769.0	0.0	1.0351	1.33228	
3770.0	0.0	1.03729	1.31763	
3771.0	0.0	1.03821	1.31104	
3772.0	0.0	1.04077	1.29456	
3773.0	0.0	1.04297	1.28046	
3774.0	0.0	1.04663	1.26892	
3775.0	0.0	1.04883	1.25867	
3776.0	0.0	1.05322	1.25519	
3777.0	0.0	1.05542	1.2453	
3778.0	0.0	1.05945	1.23596	
3779.0	0.0	1.06128	1.22864	
3780.0	0.0	1.06567	1.22388	
3781.0	0.0	1.06677	1.22754	
3782.0	0.0	1.06934	1.22131	
3783.0	0.0	1.0686	1.21875	
3784.0	0.0	1.0697	1.22095	
3785.0	0.0	1.07043	1.22113	
3786.0	0.0	1.07227	1.22607	
3787.0	0.0	1.07025	1.22369	
3788.0	0.0	1.06787	1.22736	
3789.0	0.0	1.06238	1.24072	
3790.0	0.0	1.05872	1.24072	
3791.0	0.0	1.05359	1.25244	
3792.0	0.0	1.05139	1.25391	
3793.0	0.0	1.04773	1.26031	
3794.0	0.0	1.04645	1.2691	
3795.0	0.0	1.04224	1.27881	
3796.0	0.0	1.04095	1.28723	
3797.0	0.0	1.03857	1.28741	
3798.0	0.0	1.03931	1.30078	
3799.0	0.0	1.03784	1.30389	
3800.0	0.0	1.03857	1.3092	
3801.0	0.0	1.03638	1.31543	
3802.0	0.0	1.03784	1.31763	
3803.0	0.0	1.03601	1.31451	
3804.0	0.0	1.03674	1.32715	
3805.0	0.0	1.03418	1.31671	
3806.0	0.0	1.03528	1.32404	
3807.0	0.0	1.03308	1.32532	
3808.0	0.0	1.03455	1.32454	
3809.0	0.0	1.03198	1.32454	
3810.0	0.0	1.03271	1.31689	
3811.0	0.0	1.02832	1.31433	
3812.0	0.0	1.02612	1.31085	
3813.0	0.0	1.01971	1.31213	
3814.0	0.0	1.0155	1.30499	
3815.0	0.0	1.00928	1.30106	
3816.0	0.0	1.00342	1.2995	
3817.0	0.0	0.99573	1.30243	
3818.0	0.0	0.9884	1.29364	
3819.0	0.0	0.97888	1.29144	
3820.0	0.0	0.97119	1.28394	
3821.0	0.0	0.96021	1.28229	
3822.0	0.0	0.94958	1.28778	
3823.0	0.0	0.93604	1.27936	
3824.0	0.0	0.92212	1.28265	
3825.0	0.0	0.90656	1.2821	
3826.0	0.0	0.89099	1.2724	
3827.0	0.0	0.87488	1.2735	
3828.0	0.0	0.86133	1.27167	
3829.0	0.0	0.84814	1.26874	
3830.0	0.0	0.83862	1.27094	
3831.0	0.0	0.83038	1.26361	
3832.0	0.0	0.82471	1.26595	
3833.0	0.0	0.81885	1.25299	
3834.0	0.0	0.81628	1.2486	
3835.0	0.0	0.81189	1.23724	
3836.0	0.0	0.81079	1.21875	
3837.0	0.0	0.80713	1.20447	
3838.0	0.0	0.80548	1.1803	
3839.0	0.0	0.80164	1.14587	
3840.0	0.0	0.79834	1.11401	
3841.0	0.0	0.79138	1.07721	
3842.0	0.0	0.78442	1.02173	
3843.0	0.0	0.77271	0.97192	
3844.0	0.0	0.75952	0.91287	
3845.0	0.0	0.74231	0.84393	
3846.0	0.0	0.72363	0.78259	
3847.0	0.0	0.69818	0.72217	
3848.0	0.0	0.66797	0.66156	
3849.0	0.0	0.63336	0.60278	
3850.0	0.0	0.59436	0.5603	
3851.0	0.0	0.54785	0.51416	
3852.0	0.0	0.49292	0.47095	
3853.0	0.0	0.42554	0.4303	
3854.0	0.0	0.34845	0.41235	
3855.0	0.0	0.25818	0.38599	
3856.0	0.0	0.16296	0.35962	
3857.0	0.0	0.06848	0.33929	
3858.0	0.0	-0.02124	0.30341	
3859.0	0.0	-0.10693	0.29626	
3860.0	0.0	-0.18787	0.25813	
3861.0	0.0	-0.26422	0.24641	
3862.0	0.0	-0.33636	0.23712	
3863.0	0.0	-0.40393	0.21515	
3864.0	0.0	-0.46729	0.19922	
3865.0	0.0	-0.52698	0.19135	
3866.0	0.0	-0.58246	0.17761	
3867.0	0.0	-0.63483	0.15051	
3868.0	0.0	-0.68362	0.14227	
3869.0	0.0	-0.71832	0.12762	
3870.0	0.0	-0.72821	0.12195	
3871.0	0.0	-0.71036	0.10419	
3872.0	0.0	-0.66467	0.08633	
3873.0	0.0	-0.60132	0.05823	
3874.0	0.0	-0.5202	0.03442	
3875.0	0.0	-0.43011	0.00549	
3876.0	0.0	-0.3349	-0.0174	
3877.0	0.0	-0.24536	-0.03369	
3878.0	0.0	-0.16589	-0.05219	
3879.0	0.0	-0.11096	-0.08624	
3880.0	0.0	-0.08459	-0.0965	
3881.0	0.0	-0.09906	-0.11151	
3882.0	0.0	-0.1507	-0.12195	
3883.0	0.0	-0.23822	-0.13696	
3884.0	0.0	-0.3252	-0.15894	
3885.0	0.0	-0.40356	-0.16479	
3886.0	0.0	-0.47516	-0.17651	
3887.0	0.0	-0.53815	-0.18475	
3888.0	0.0	-0.59711	-0.19318	
3889.0	0.0	-0.64783	-0.19592	
3890.0	0.0	-0.68939	-0.19409	
3891.0	0.0	-0.72272	-0.19354	
3892.0	0.0	-0.74268	-0.18842	
3893.0	0.0	-0.75293	-0.17569	
3894.0	0.0	-0.75018	-0.19501	
3895.0	0.0	-0.74597	-0.2049	
3896.0	0.0	-0.77325	-0.21844	
3897.0	0.0	-0.81573	-0.23291	
3898.0	0.0	-0.85437	-0.23547	
3899.0	0.0	-0.89081	-0.25525	
3900.0	0.0	-0.92487	-0.271	
3901.0	0.0	-0.95627	-0.29004	
3902.0	0.0	-0.98657	-0.29022	
3903.0	0.0	-1.01477	-0.28381	
3904.0	0.0	-1.0415	-0.29553	
3905.0	0.0	-1.0611	-0.28748	
3906.0	0.0	-1.0724	-0.28912	
3907.0	0.0	-1.0741	-0.27319	
3908.0	0.0	-1.06197	-0.27136	
3909.0	0.0	-1.04205	-0.27594	
3910.0	0.0	-1.01056	-0.29626	
3911.0	0.0	-0.97449	-0.2948	
3912.0	0.0	-0.93073	-0.29956	
3913.0	0.0	-0.88806	-0.29645	
3914.0	0.0	-0.84302	-0.29095	
3915.0	0.0	-0.7998	-0.28235	
3916.0	0.0	-0.7533	-0.27081	
3917.0	0.0	-0.70789	-0.25891	
3918.0	0.0	-0.65918	-0.22888	
3919.0	0.0	-0.61176	-0.22229	
3920.0	0.0	-0.56067	-0.2016	
3921.0	0.0	-0.5116	-0.19281	
3922.0	0.0	-0.45996	-0.17651	
3923.0	0.0	-0.41162	-0.16699	
3924.0	0.0	-0.36292	-0.14607	
3925.0	0.0	-0.3186	-0.11316	
3926.0	0.0	-0.27502	-0.09814	
3927.0	0.0	-0.23511	-0.08624	
3928.0	0.0	-0.19409	-0.07416	
3929.0	0.0	-0.15308	-0.06885	
3930.0	0.0	-0.1062	-0.04999	
3931.0	0.0	-0.05475	-0.0509	
3932.0	0.0	0.00494	-0.05219	
3933.0	0.0	0.06885	-0.06775	
3934.0	0.0	0.13843	-0.07581	
3935.0	0.0	0.20581	-0.08917	
3936.0	0.0	0.27502	-0.10254	
3937.0	0.0	0.33948	-0.12579	
3938.0	0.0	0.3999	-0.13	
3939.0	0.0	0.45557	-0.15143	
3940.0	0.0	0.50537	-0.16187	
3941.0	0.0	0.54932	-0.16718	
3942.0	0.0	0.59125	-0.19244	
3943.0	0.0	0.62878	-0.19629	
3944.0	0.0	0.66632	-0.21661	
3945.0	0.0	0.70166	-0.22852	
3946.0	0.0	0.73975	-0.24591	
3947.0	0.0	0.77692	-0.27081	
3948.0	0.0	0.81226	-0.28674	
3949.0	0.0	0.84668	-0.30359	
3950.0	0.0	0.87817	-0.31476	
3951.0	0.0	0.9082	-0.33289	
3952.0	0.0	0.93567	-0.33984	
3953.0	0.0	0.96167	-0.35577	
3954.0	0.0	0.98511	-0.3631	
3955.0	0.0	1.00635	-0.37518	
3956.0	0.0	1.02722	-0.38379	
3957.0	0.0	1.04773	-0.39331	
3958.0	0.0	1.06769	-0.39487	
3959.0	0.0	1.08655	-0.39331	
3960.0	0.0	1.10486	-0.38562	
3961.0	0.0	1.125	-0.37592	
3962.0	0.0	1.14056	-0.36145	
3963.0	0.0	1.15723	-0.34854	
3964.0	0.0	1.17041	-0.33344	
3965.0	0.0	1.18359	-0.32098	
3966.0	0.0	1.19385	-0.31192	
3967.0	0.0	1.20245	-0.30835	
3968.0	0.0	1.21069	-0.30853	
3969.0	0.0	1.21619	-0.30927	
3970.0	0.0	1.22424	-0.31165	
3971.0	0.0	1.2301	-0.30762	
3972.0	0.0	1.23688	-0.29919	
3973.0	0.0	1.24255	-0.28857	
3974.0	0.0	1.24988	-0.26953	
3975.0	0.0	1.25757	-0.25232	
3976.0	0.0	1.26489	-0.23126	
3977.0	0.0	1.27332	-0.21167	
3978.0	0.0	1.27917	-0.18521	
3979.0	0.0	1.2854	-0.15637	
3980.0	0.0	1.29089	-0.12067	
3981.0	0.0	1.29639	-0.07874	
3982.0	0.0	1.3006	-0.03278	
3983.0	0.0	1.30481	0.01648	
3984.0	0.0	1.30957	0.07141	
3985.0	0.0	1.3136	0.13037	
3986.0	0.0	1.31763	0.16974	
3987.0	0.0	1.32092	0.22174	
3988.0	0.0	1.32385	0.2688	
3989.0	0.0	1.32568	0.31293	
3990.0	0.0	1.32788	0.34021	
3991.0	0.0	1.32788	0.38928	
3992.0	0.0	1.33044	0.40155	
3993.0	0.0	1.33154	0.42352	
3994.0	0.0	1.33447	0.4574	
3995.0	0.0	1.33539	0.46509	
3996.0	0.0	1.33887	0.48303	
3997.0	0.0	1.3418	0.49823	
3998.0	0.0	1.34363	0.50244	
3999.0	0.0	1.34583	0.51819	
4000.0	0.0	1.34766	0.53522	
4001.0	0.0	1.34985	0.55865	
4002.0	0.0	1.35205	0.57019	
4003.0	0.0	1.35242	0.5744	
4004.0	0.0	1.35461	0.57605	
4005.0	0.0	1.35352	0.58099	
4006.0	0.0	1.35571	0.5603	
4007.0	0.0	1.35718	0.55005	
4008.0	0.0	1.36194	0.51544	
4009.0	0.0	1.36597	0.50116	
4010.0	0.0	1.37	0.45831	
4011.0	0.0	1.37549	0.4292	
4012.0	0.0	1.37915	0.41748	
4013.0	0.0	1.38135	0.39331	
4014.0	0.0	1.38428	0.35706	
4015.0	0.0	1.38574	0.34937	
4016.0	0.0	1.38647	0.32355	
4017.0	0.0	1.38666	0.30341	
4018.0	0.0	1.38721	0.27228	
4019.0	0.0	1.38501	0.22668	
4020.0	0.0	1.38428	0.1745	
4021.0	0.0	1.37915	0.11902	
4022.0	0.0	1.37274	0.04413	
4023.0	0.0	1.36011	-0.02509	
4024.0	0.0	1.34875	-0.07617	
4025.0	0.0	1.33008	-0.12524	
4026.0	0.0	1.31323	-0.15802	
4027.0	0.0	1.28979	-0.19263	
4028.0	0.0	1.26892	-0.23108	
4029.0	0.0	1.24805	-0.26917	
4030.0	0.0	1.23376	-0.30414	
4031.0	0.0	1.22021	-0.33527	
4032.0	0.0	1.21564	-0.36328	
4033.0	0.0	1.21509	-0.38562	
4034.0	0.0	1.2334	-0.39825	
4035.0	0.0	1.25171	-0.41089	
4036.0	0.0	1.26819	-0.41895	
4037.0	0.0	1.28687	-0.42352	
4038.0	0.0	1.30042	-0.42755	
4039.0	0.0	1.31415	-0.42444	
4040.0	0.0	1.32495	-0.42046	
4041.0	0.0	1.33521	-0.41336	
4042.0	0.0	1.34143	-0.40613	
4043.0	0.0	1.34546	-0.39386	
4044.0	0.0	1.34839	-0.38232	
4045.0	0.0	1.34839	-0.37354	
4046.0	0.0	1.34802	-0.36356	
4047.0	0.0	1.3418	-0.34644	
4048.0	0.0	1.33667	-0.33508	
4049.0	0.0	1.32422	-0.3284	
4050.0	0.0	1.3147	-0.32501	
4051.0	0.0	1.30151	-0.32172	
4052.0	0.0	1.29272	-0.31357	
4053.0	0.0	1.2832	-0.30835	
4054.0	0.0	1.28027	-0.30341	
4055.0	0.0	1.27661	-0.30135	
4056.0	0.0	1.27881	-0.30267	
4057.0	0.0	1.27808	-0.30927	
4058.0	0.0	1.2843	-0.31824	
4059.0	0.0	1.28833	-0.32794	
4060.0	0.0	1.29639	-0.34058	
4061.0	0.0	1.30261	-0.35284	
4062.0	0.0	1.30811	-0.36823	
4063.0	0.0	1.30664	-0.38892	
4064.0	0.0	1.30225	-0.40686	
4065.0	0.0	1.28577	-0.4303	
4066.0	0.0	1.26855	-0.44293	
4067.0	0.0	1.24731	-0.44952	
4068.0	0.0	1.23193	-0.4422	
4069.0	0.0	1.22113	-0.4422	
4070.0	0.0	1.22461	-0.43863	
4071.0	0.0	1.23376	-0.4422	
4072.0	0.0	1.25171	-0.44385	
4073.0	0.0	1.27002	-0.44513	
4074.0	0.0	1.28485	-0.4541	
4075.0	0.0	1.30005	-0.47095	
4076.0	0.0	1.31195	-0.48596	
4077.0	0.0	1.32275	-0.50372	
4078.0	0.0	1.33228	-0.52112	
4079.0	0.0	1.34198	-0.53522	
4080.0	0.0	1.35059	-0.54382	
4081.0	0.0	1.35791	-0.54886	
4082.0	0.0	1.36304	-0.5462	
4083.0	0.0	1.36816	-0.5592	
4084.0	0.0	1.37109	-0.5647	
4085.0	0.0	1.37256	-0.57404	
4086.0	0.0	1.37439	-0.58301	
4087.0	0.0	1.37439	-0.59106	
4088.0	0.0	1.37842	-0.59885	
4089.0	0.0	1.37988	-0.60205	
4090.0	0.0	1.38025	-0.60864	
4091.0	0.0	1.37476	-0.61249	
4092.0	0.0	1.3689	-0.61615	
4093.0	0.0	1.35095	-0.61652	
4094.0	0.0	1.33228	-0.61203	
4095.0	0.0	1.30151	-0.6026	
4096.0	0.0	1.26892	-0.58722	
4097.0	0.0	1.22754	-0.57477	
4098.0	0.0	1.18689	-0.55646	
4099.0	0.0	1.13965	-0.54364	
4100.0	0.0	1.099	-0.52579	
4101.0	0.0	1.05579	-0.50574	
4102.0	0.0	1.02081	-0.48706	
4103.0	0.0	0.98987	-0.46893	
4104.0	0.0	0.97119	-0.44989	
4105.0	0.0	0.95801	-0.43451	
4106.0	0.0	0.95544	-0.42105	
4107.0	0.0	0.95728	-0.39825	
4108.0	0.0	0.96753	-0.37592	
4109.0	0.0	0.97614	-0.34772	
4110.0	0.0	0.99243	-0.31714	
4111.0	0.0	1.00635	-0.28839	
4112.0	0.0	1.02759	-0.25488	
4113.0	0.0	1.0459	-0.22375	
4114.0	0.0	1.06934	-0.19336	
4115.0	0.0	1.08911	-0.16168	
4116.0	0.0	1.10962	-0.12067	
4117.0	0.0	1.12573	-0.08588	
4118.0	0.0	1.14221	-0.04266	
4119.0	0.0	1.15027	0.0	
4120.0	0.0	1.15942	0.04834	
4121.0	0.0	1.15887	0.09357	
4122.0	0.0	1.16254	0.11682	
4123.0	0.0	1.15942	0.15161	
4124.0	0.0	1.15997	0.16919	
4125.0	0.0	1.15686	0.18201	
4126.0	0.0	1.15686	0.19711	
4127.0	0.0	1.15411	0.20837	
4128.0	0.0	1.15613	0.23145	
4129.0	0.0	1.15393	0.23877	
4130.0	0.0	1.15503	0.2569	
4131.0	0.0	1.15027	0.25616	
4132.0	0.0	1.1488	0.24957	
4133.0	0.0	1.1413	0.24463	
4134.0	0.0	1.13745	0.23676	
4135.0	0.0	1.1272	0.22961	
4136.0	0.0	1.12244	0.23273	
4137.0	0.0	1.11328	0.22339	
4138.0	0.0	1.10815	0.2287	
4139.0	0.0	1.09717	0.22009	
4140.0	0.0	1.09167	0.22046	
4141.0	0.0	1.08252	0.21057	
4142.0	0.0	1.07812	0.20435	
4143.0	0.0	1.07153	0.20782	
4144.0	0.0	1.07098	0.19739	
4145.0	0.0	1.06714	0.17542	
4146.0	0.0	1.0686	0.16809	
4147.0	0.0	1.06384	0.15894	
4148.0	0.0	1.06421	0.1485	
4149.0	0.0	1.05835	0.13733	
4150.0	0.0	1.05652	0.12762	
4151.0	0.0	1.04846	0.11462	
4152.0	0.0	1.04517	0.10602	
4153.0	0.0	1.03601	0.09485	
4154.0	0.0	1.03052	0.08954	
4155.0	0.0	1.02063	0.07983	
4156.0	0.0	1.01514	0.07809	
4157.0	0.0	1.00378	0.06299	
4158.0	0.0	0.99829	0.06537	
4159.0	0.0	0.98694	0.03772	
4160.0	0.0	0.98035	0.03333	
4161.0	0.0	0.97064	0.02692	
4162.0	0.0	0.96533	0.00732	
4163.0	0.0	0.95911	0.00055	
4164.0	0.0	0.95837	-0.00586	
4165.0	0.0	0.95435	-0.01758	
4166.0	0.0	0.95471	-0.02271	
4167.0	0.0	0.95251	-0.03717	
4168.0	0.0	0.95508	-0.03845	
4169.0	0.0	0.95563	-0.05786	
4170.0	0.0	0.9635	-0.06573	
4171.0	0.0	0.96753	-0.07379	
4172.0	0.0	0.97925	-0.08789	
4173.0	0.0	0.98474	-0.09869	
4174.0	0.0	0.99719	-0.10913	
4175.0	0.0	1.00452	-0.12524	
4176.0	0.0	1.01514	-0.12524	
4177.0	0.0	1.01917	-0.14319	
4178.0	0.0	1.02539	-0.15967	
4179.0	0.0	1.02539	-0.17505	
4180.0	0.0	1.02795	-0.19006	
4181.0	0.0	1.02319	-0.20343	
4182.0	0.0	1.02246	-0.21552	
4183.0	0.0	1.01587	-0.22943	
4184.0	0.0	1.0144	-0.24426	
4185.0	0.0	1.00745	-0.25598	
4186.0	0.0	1.00525	-0.26807	
4187.0	0.0	0.99756	-0.27869	
4188.0	0.0	0.99353	-0.284	
4189.0	0.0	0.98218	-0.29425	
4190.0	0.0	0.97614	-0.29608	
4191.0	0.0	0.96313	-0.29791	
4192.0	0.0	0.95306	-0.29663	
4193.0	0.0	0.93713	-0.29297	
4194.0	0.0	0.92578	-0.28473	
4195.0	0.0	0.91077	-0.27594	
4196.0	0.0	0.90015	-0.25708	
4197.0	0.0	0.88696	-0.24298	
4198.0	0.0	0.87927	-0.23236	
4199.0	0.0	0.86865	-0.2179	
4200.0	0.0	0.86426	-0.20215	
4201.0	0.0	0.85693	-0.17981	
4202.0	0.0	0.85474	-0.16333	
4203.0	0.0	0.84814	-0.1452	
4204.0	0.0	0.84851	-0.12085	
4205.0	0.0	0.84357	-0.0965	
4206.0	0.0	0.84521	-0.07489	
4207.0	0.0	0.84082	-0.04871	
4208.0	0.0	0.84045	-0.03241	
4209.0	0.0	0.83496	-0.01245	
4210.0	0.0	0.83368	0.00751	
4211.0	0.0	0.82727	0.03516	
4212.0	0.0	0.82617	0.05951	
4213.0	0.0	0.81958	0.06473	
4214.0	0.0	0.81848	0.08734	
4215.0	0.0	0.81226	0.11224	
4216.0	0.0	0.81189	0.13293	
4217.0	0.0	0.80713	0.15802	
4218.0	0.0	0.8075	0.20123	
4219.0	0.0	0.80383	0.22723	
4220.0	0.0	0.80493	0.26587	
4221.0	0.0	0.80127	0.29553	
4222.0	0.0	0.80566	0.31787	
4223.0	0.0	0.8042	0.34991	
4224.0	0.0	0.81372	0.37701	
4225.0	0.0	0.81921	0.40137	
4226.0	0.0	0.8335	0.42371	
4227.0	0.0	0.84375	0.44559	
4228.0	0.0	0.86096	0.47131	
4229.0	0.0	0.87231	0.492	
4230.0	0.0	0.89136	0.51782	
4231.0	0.0	0.90417	0.54016	
4232.0	0.0	0.92175	0.56451	
4233.0	0.0	0.93164	0.5874	
4234.0	0.0	0.94336	0.60864	
4235.0	0.0	0.94794	0.62933	
4236.0	0.0	0.95691	0.64526	
4237.0	0.0	0.95947	0.65771	
4238.0	0.0	0.9635	0.67145	
4239.0	0.0	0.96021	0.68225	
4240.0	0.0	0.95947	0.69836	
