# OpenSignals Text File Format. Version 1
# {"00:07:80:4B:29:5A": {"position": 0, "device": "biosignalsplux", "device name": "00:07:80:4B:29:5A", "device connection": "/dev/tty.biosignalsplux-Bluetoot", "sampling rate": 100, "resolution": [16, 16], "firmware version": 776, "comments": "", "keywords": "", "mode": 0, "sync interval": 2, "date": "2022-5-12", "time": "11:16:18.624", "channels": [1, 2], "sensor": ["RESPIRATION", "RESPIRATION"], "label": ["CH1", "CH2"], "column": ["nSeq", "DI", "CH1", "CH2"], "special": [{"SpO2": [80, 40, 5, 4, 3, 3]}, {"SpO2": [80, 40, 5, 4, 3, 3]}, {"SpO2": [80, 40, 5, 4, 3, 3]}, {"SpO2": [80, 40, 5, 4, 3, 3]}, {"SpO2": [80, 40, 5, 4, 3, 3]}, {"SpO2": [80, 40, 5, 4, 3, 3]}, {"SpO2": [80, 40, 5, 4, 3, 3]}, {"SpO2": [80, 40, 5, 4, 3, 3]}], "digital IO": [0, 1], "sleeve color": ["red", ""], "convertedValues": 1}}
# EndOfHeader
0.0	0.0	-0.84119	-0.06903	
1.0	0.0	-0.83368	-0.05827	
2.0	0.0	-0.82526	-0.06638	
3.0	0.0	-0.82196	-0.06244	
4.0	0.0	-0.81921	-0.08038	
5.0	0.0	-0.82159	-0.07892	
6.0	0.0	-0.82324	-0.08835	
7.0	0.0	-0.82764	-0.09558	
8.0	0.0	-0.83002	-0.08588	
9.0	0.0	-0.83478	-0.05786	
10.0	0.0	-0.83638	-0.065	
11.0	0.0	-0.83936	-0.06592	
12.0	0.0	-0.84064	-0.05786	
13.0	0.0	-0.84439	-0.06042	
14.0	0.0	-0.84718	-0.05365	
15.0	0.0	-0.85254	-0.04193	
16.0	0.0	-0.85547	-0.03516	
17.0	0.0	-0.8606	-0.02206	
18.0	0.0	-0.86197	-0.01099	
19.0	0.0	-0.86517	-0.01318	
20.0	0.0	-0.86536	0.00568	
21.0	0.0	-0.86655	0.01703	
22.0	0.0	-0.86481	0.03625	
23.0	0.0	-0.86444	0.02911	
24.0	0.0	-0.86133	0.04706	
25.0	0.0	-0.86096	0.05127	
26.0	0.0	-0.85909	0.0661	
27.0	0.0	-0.86133	0.07645	
28.0	0.0	-0.86279	0.09705	
29.0	0.0	-0.86682	0.11829	
30.0	0.0	-0.86902	0.11865	
31.0	0.0	-0.87323	0.12854	
32.0	0.0	-0.87488	0.15564	
33.0	0.0	-0.8779	0.15564	
34.0	0.0	-0.87854	0.17084	
35.0	0.0	-0.88165	0.15262	
36.0	0.0	-0.88385	0.18494	
37.0	0.0	-0.88806	0.17908	
38.0	0.0	-0.89081	0.17834	
39.0	0.0	-0.89456	0.17688	
40.0	0.0	-0.89648	0.18475	
41.0	0.0	-0.89941	0.18567	
42.0	0.0	-0.90033	0.21204	
43.0	0.0	-0.90161	0.22668	
44.0	0.0	-0.89987	0.24518	
45.0	0.0	-0.89722	0.26038	
46.0	0.0	-0.89209	0.2915	
47.0	0.0	-0.8855	0.28894	
48.0	0.0	-0.87653	0.30231	
49.0	0.0	-0.86581	0.31494	
50.0	0.0	-0.85236	0.32501	
51.0	0.0	-0.83917	0.35028	
52.0	0.0	-0.82416	0.34607	
53.0	0.0	-0.81134	0.37115	
54.0	0.0	-0.80054	0.36786	
55.0	0.0	-0.79523	0.41199	
56.0	0.0	-0.79367	0.42883	
57.0	0.0	-0.79642	0.4455	
58.0	0.0	-0.79871	0.45776	
59.0	0.0	-0.80402	0.47864	
60.0	0.0	-0.8139	0.47836	
61.0	0.0	-0.82764	0.49567	
62.0	0.0	-0.84302	0.49438	
63.0	0.0	-0.86348	0.49988	
64.0	0.0	-0.88586	0.49329	
65.0	0.0	-0.91241	0.49731	
66.0	0.0	-0.94034	0.47827	
67.0	0.0	-0.96922	0.47223	
68.0	0.0	-0.9939	0.47424	
69.0	0.0	-1.0166	0.46381	
70.0	0.0	-1.03326	0.46307	
71.0	0.0	-1.04691	0.47058	
72.0	0.0	-1.0545	0.4585	
73.0	0.0	-1.05981	0.45721	
74.0	0.0	-1.06036	0.46069	
75.0	0.0	-1.06027	0.45355	
76.0	0.0	-1.05817	0.46765	
77.0	0.0	-1.0578	0.46417	
78.0	0.0	-1.0546	0.4693	
79.0	0.0	-1.04974	0.47131	
80.0	0.0	-1.04224	0.479	
81.0	0.0	-1.03482	0.4563	
82.0	0.0	-1.02484	0.46564	
83.0	0.0	-1.01404	0.46014	
84.0	0.0	-1.00177	0.46106	
85.0	0.0	-0.9911	0.43945	
86.0	0.0	-0.97787	0.44824	
87.0	0.0	-0.9646	0.42654	
88.0	0.0	-0.95032	0.4552	
89.0	0.0	-0.93677	0.45557	
90.0	0.0	-0.92285	0.46454	
91.0	0.0	-0.9082	0.46692	
92.0	0.0	-0.89227	0.45135	
93.0	0.0	-0.87616	0.43121	
94.0	0.0	-0.85748	0.4129	
95.0	0.0	-0.83844	0.42059	
96.0	0.0	-0.81876	0.40833	
97.0	0.0	-0.79852	0.3891	
98.0	0.0	-0.77765	0.38489	
99.0	0.0	-0.75604	0.38232	
100.0	0.0	-0.73389	0.39954	
101.0	0.0	-0.70999	0.38727	
102.0	0.0	-0.68665	0.39642	
103.0	0.0	-0.66046	0.38104	
104.0	0.0	-0.63812	0.39807	
105.0	0.0	-0.61725	0.41803	
106.0	0.0	-0.6026	0.40631	
107.0	0.0	-0.58722	0.42682	
108.0	0.0	-0.57275	0.44623	
109.0	0.0	-0.55481	0.46655	
110.0	0.0	-0.53632	0.48102	
111.0	0.0	-0.51361	0.48761	
112.0	0.0	-0.49109	0.48047	
113.0	0.0	-0.46454	0.48633	
114.0	0.0	-0.43744	0.45959	
115.0	0.0	-0.40759	0.45319	
116.0	0.0	-0.38104	0.43744	
117.0	0.0	-0.35358	0.42737	
118.0	0.0	-0.33069	0.42215	
119.0	0.0	-0.30688	0.42828	
120.0	0.0	-0.28546	0.43048	
121.0	0.0	-0.26074	0.45502	
122.0	0.0	-0.23657	0.48193	
123.0	0.0	-0.20947	0.50299	
124.0	0.0	-0.18311	0.52277	
125.0	0.0	-0.15381	0.54913	
126.0	0.0	-0.12561	0.56049	
127.0	0.0	-0.09521	0.56104	
128.0	0.0	-0.06683	0.58374	
129.0	0.0	-0.03937	0.59766	
130.0	0.0	-0.01685	0.60315	
131.0	0.0	0.00439	0.63007	
132.0	0.0	0.01758	0.63757	
133.0	0.0	0.03479	0.66119	
134.0	0.0	0.0434	0.66156	
135.0	0.0	0.05402	0.67548	
136.0	0.0	0.06189	0.68188	
137.0	0.0	0.07031	0.69049	
138.0	0.0	0.07452	0.68372	
139.0	0.0	0.08002	0.70331	
140.0	0.0	0.08221	0.71631	
141.0	0.0	0.08789	0.72473	
142.0	0.0	0.09119	0.724	
143.0	0.0	0.09998	0.74323	
144.0	0.0	0.10913	0.7392	
145.0	0.0	0.12341	0.737	
146.0	0.0	0.14117	0.72528	
147.0	0.0	0.16553	0.73004	
148.0	0.0	0.19373	0.71722	
149.0	0.0	0.22522	0.70715	
150.0	0.0	0.25635	0.70459	
151.0	0.0	0.28967	0.72015	
152.0	0.0	0.32153	0.73206	
153.0	0.0	0.35413	0.77087	
154.0	0.0	0.38635	0.80017	
155.0	0.0	0.41858	0.82063	
156.0	0.0	0.45007	0.84869	
157.0	0.0	0.4812	0.8465	
158.0	0.0	0.51086	0.85437	
159.0	0.0	0.53741	0.85345	
160.0	0.0	0.56177	0.8476	
161.0	0.0	0.58374	0.86169	
162.0	0.0	0.60535	0.87268	
163.0	0.0	0.62878	0.88037	
164.0	0.0	0.65332	0.89172	
165.0	0.0	0.68042	0.91663	
166.0	0.0	0.70862	0.93237	
167.0	0.0	0.73901	0.93768	
168.0	0.0	0.76721	0.95288	
169.0	0.0	0.79321	0.95874	
170.0	0.0	0.81628	0.96863	
171.0	0.0	0.83716	0.9679	
172.0	0.0	0.85565	0.97632	
173.0	0.0	0.87415	0.97852	
174.0	0.0	0.89062	0.97705	
175.0	0.0	0.91516	0.96771	
176.0	0.0	0.93274	0.96021	
177.0	0.0	0.95618	0.95728	
178.0	0.0	0.96313	0.94519	
179.0	0.0	0.97522	0.94427	
180.0	0.0	0.98145	0.94922	
181.0	0.0	0.9873	0.96387	
182.0	0.0	0.98785	0.98767	
183.0	0.0	0.98987	1.0058	
184.0	0.0	0.98987	1.01111	
185.0	0.0	0.99316	1.02136	
186.0	0.0	0.99573	1.02045	
187.0	0.0	0.99866	1.01111	
188.0	0.0	0.99866	0.99426	
189.0	0.0	0.99756	0.97705	
190.0	0.0	0.9873	0.9635	
191.0	0.0	0.96936	0.96515	
192.0	0.0	0.9397	0.96423	
193.0	0.0	0.9082	0.96277	
194.0	0.0	0.87268	0.97998	
195.0	0.0	0.83936	0.9884	
196.0	0.0	0.80713	0.99133	
197.0	0.0	0.77875	0.97559	
198.0	0.0	0.75146	0.95892	
199.0	0.0	0.73004	0.93457	
200.0	0.0	0.70972	0.90637	
201.0	0.0	0.69543	0.88953	
202.0	0.0	0.68335	0.86298	
203.0	0.0	0.67822	0.83716	
204.0	0.0	0.67603	0.82379	
205.0	0.0	0.67896	0.80603	
206.0	0.0	0.68079	0.77325	
207.0	0.0	0.68628	0.75897	
208.0	0.0	0.69159	0.72473	
209.0	0.0	0.7002	0.70624	
210.0	0.0	0.70898	0.67648	
211.0	0.0	0.71851	0.65222	
212.0	0.0	0.72583	0.62823	
213.0	0.0	0.73608	0.60205	
214.0	0.0	0.7478	0.58173	
215.0	0.0	0.76758	0.55792	
216.0	0.0	0.79102	0.53687	
217.0	0.0	0.82031	0.52386	
218.0	0.0	0.85217	0.505	
219.0	0.0	0.89044	0.48853	
220.0	0.0	0.9267	0.47552	
221.0	0.0	0.9613	0.4715	
222.0	0.0	0.9917	0.45703	
223.0	0.0	1.02045	0.45044	
224.0	0.0	1.04517	0.44275	
225.0	0.0	1.07153	0.43451	
226.0	0.0	1.09534	0.42517	
227.0	0.0	1.11841	0.42096	
228.0	0.0	1.13965	0.42755	
229.0	0.0	1.16052	0.42188	
230.0	0.0	1.17847	0.42206	
231.0	0.0	1.19604	0.41144	
232.0	0.0	1.20923	0.41437	
233.0	0.0	1.21948	0.4314	
234.0	0.0	1.22644	0.44128	
235.0	0.0	1.23267	0.44733	
236.0	0.0	1.23523	0.47955	
237.0	0.0	1.23926	0.49677	
238.0	0.0	1.24255	0.5094	
239.0	0.0	1.24658	0.52661	
240.0	0.0	1.24786	0.55106	
241.0	0.0	1.24951	0.57642	
242.0	0.0	1.24768	0.6004	
243.0	0.0	1.24731	0.63098	
244.0	0.0	1.24365	0.65405	
245.0	0.0	1.24146	0.6698	
246.0	0.0	1.23779	0.68152	
247.0	0.0	1.23669	0.69891	
248.0	0.0	1.2334	0.70898	
249.0	0.0	1.23193	0.7196	
250.0	0.0	1.22864	0.73352	
251.0	0.0	1.22607	0.74561	
252.0	0.0	1.22131	0.76025	
253.0	0.0	1.21765	0.77197	
254.0	0.0	1.21143	0.77692	
255.0	0.0	1.20557	0.78186	
256.0	0.0	1.19934	0.78223	
257.0	0.0	1.19495	0.77985	
258.0	0.0	1.18799	0.77234	
259.0	0.0	1.18378	0.76685	
260.0	0.0	1.17627	0.75824	
261.0	0.0	1.17096	0.7489	
262.0	0.0	1.16528	0.74048	
263.0	0.0	1.15906	0.73206	
264.0	0.0	1.15137	0.72418	
265.0	0.0	1.14404	0.71558	
266.0	0.0	1.13452	0.70569	
267.0	0.0	1.12738	0.69452	
268.0	0.0	1.11255	0.68188	
269.0	0.0	1.10376	0.67657	
270.0	0.0	1.08142	0.66687	
271.0	0.0	1.05798	0.66321	
272.0	0.0	1.02283	0.65332	
273.0	0.0	0.995	0.646	
274.0	0.0	0.9646	0.63062	
275.0	0.0	0.94409	0.6189	
276.0	0.0	0.91772	0.59637	
277.0	0.0	0.90198	0.57751	
278.0	0.0	0.88037	0.54877	
279.0	0.0	0.86884	0.52954	
280.0	0.0	0.85327	0.50684	
281.0	0.0	0.83972	0.48706	
282.0	0.0	0.82764	0.46619	
283.0	0.0	0.81519	0.44916	
284.0	0.0	0.80566	0.43433	
285.0	0.0	0.79797	0.41748	
286.0	0.0	0.79468	0.40173	
287.0	0.0	0.79248	0.39001	
288.0	0.0	0.79321	0.37848	
289.0	0.0	0.79504	0.37079	
290.0	0.0	0.79486	0.36328	
291.0	0.0	0.79559	0.36639	
292.0	0.0	0.79651	0.37234	
293.0	0.0	0.79688	0.37994	
294.0	0.0	0.79578	0.39075	
295.0	0.0	0.79504	0.40338	
296.0	0.0	0.79468	0.41382	
297.0	0.0	0.79541	0.42004	
298.0	0.0	0.79834	0.42847	
299.0	0.0	0.80273	0.43158	
300.0	0.0	0.80859	0.43634	
301.0	0.0	0.81628	0.43835	
302.0	0.0	0.82471	0.43945	
303.0	0.0	0.83496	0.44147	
304.0	0.0	0.84741	0.44403	
305.0	0.0	0.86023	0.4455	
306.0	0.0	0.87341	0.45007	
307.0	0.0	0.8866	0.45062	
308.0	0.0	0.89978	0.45319	
309.0	0.0	0.91223	0.46069	
310.0	0.0	0.92395	0.46106	
311.0	0.0	0.93604	0.46417	
312.0	0.0	0.94812	0.47205	
313.0	0.0	0.95874	0.47388	
314.0	0.0	0.96973	0.48413	
315.0	0.0	0.97925	0.49036	
316.0	0.0	0.98987	0.4931	
317.0	0.0	1.00012	0.49622	
318.0	0.0	1.00928	0.50647	
319.0	0.0	1.01807	0.5116	
320.0	0.0	1.02686	0.51306	
321.0	0.0	1.03381	0.51965	
322.0	0.0	1.04004	0.52734	
323.0	0.0	1.0459	0.53503	
324.0	0.0	1.05029	0.54712	
325.0	0.0	1.05322	0.55408	
326.0	0.0	1.05615	0.56085	
327.0	0.0	1.0578	0.57458	
328.0	0.0	1.05945	0.58447	
329.0	0.0	1.06091	0.59161	
330.0	0.0	1.06165	0.60242	
331.0	0.0	1.06348	0.61258	
332.0	0.0	1.06458	0.62183	
333.0	0.0	1.06604	0.62988	
334.0	0.0	1.06659	0.63684	
335.0	0.0	1.06714	0.6438	
336.0	0.0	1.06677	0.65057	
337.0	0.0	1.06641	0.65552	
338.0	0.0	1.06567	0.66119	
339.0	0.0	1.06348	0.66742	
340.0	0.0	1.06165	0.67456	
341.0	0.0	1.05981	0.67987	
342.0	0.0	1.05725	0.68555	
343.0	0.0	1.05414	0.69141	
344.0	0.0	1.05176	0.698	
345.0	0.0	1.04956	0.70312	
346.0	0.0	1.04736	0.70734	
347.0	0.0	1.0448	0.71246	
348.0	0.0	1.04297	0.71796	
349.0	0.0	1.03967	0.72162	
350.0	0.0	1.03711	0.72327	
351.0	0.0	1.03491	0.7262	
352.0	0.0	1.03198	0.73022	
353.0	0.0	1.02869	0.73334	
354.0	0.0	1.02649	0.73206	
355.0	0.0	1.02374	0.73663	
356.0	0.0	1.02209	0.73846	
357.0	0.0	1.01898	0.74048	
358.0	0.0	1.0166	0.74084	
359.0	0.0	1.01367	0.74396	
360.0	0.0	1.01147	0.74634	
361.0	0.0	1.01111	0.74524	
362.0	0.0	1.01038	0.74854	
363.0	0.0	1.01001	0.74927	
364.0	0.0	1.00854	0.74835	
365.0	0.0	1.00671	0.74304	
366.0	0.0	1.00195	0.74268	
367.0	0.0	0.99701	0.74231	
368.0	0.0	0.99243	0.74359	
369.0	0.0	0.9895	0.7392	
370.0	0.0	0.98657	0.74194	
371.0	0.0	0.98511	0.7359	
372.0	0.0	0.98346	0.73627	
373.0	0.0	0.98218	0.737	
374.0	0.0	0.98218	0.73663	
375.0	0.0	0.98145	0.73425	
376.0	0.0	0.98035	0.74084	
377.0	0.0	0.97961	0.7381	
378.0	0.0	0.97723	0.74359	
379.0	0.0	0.97705	0.74139	
380.0	0.0	0.97577	0.74579	
381.0	0.0	0.97522	0.74506	
382.0	0.0	0.97485	0.7392	
383.0	0.0	0.97485	0.74139	
384.0	0.0	0.97485	0.73663	
385.0	0.0	0.97449	0.73206	
386.0	0.0	0.9743	0.72766	
387.0	0.0	0.97485	0.72253	
388.0	0.0	0.97559	0.71887	
389.0	0.0	0.97559	0.71155	
390.0	0.0	0.97632	0.70825	
391.0	0.0	0.97632	0.70551	
392.0	0.0	0.97559	0.70276	
393.0	0.0	0.97412	0.69855	
394.0	0.0	0.97357	0.69727	
395.0	0.0	0.97192	0.69745	
396.0	0.0	0.97174	0.69324	
397.0	0.0	0.96973	0.69708	
398.0	0.0	0.96899	0.69379	
399.0	0.0	0.96844	0.69324	
400.0	0.0	0.96826	0.6925	
401.0	0.0	0.96899	0.6936	
402.0	0.0	0.96973	0.68976	
403.0	0.0	0.96863	0.69173	
404.0	0.0	0.9679	0.68628	
405.0	0.0	0.9668	0.68793	
406.0	0.0	0.96387	0.68811	
407.0	0.0	0.96167	0.68573	
408.0	0.0	0.95874	0.68921	
409.0	0.0	0.95581	0.69012	
410.0	0.0	0.95288	0.69141	
411.0	0.0	0.94849	0.68793	
412.0	0.0	0.94446	0.68573	
413.0	0.0	0.9397	0.68829	
414.0	0.0	0.93494	0.68463	
415.0	0.0	0.92981	0.68317	
416.0	0.0	0.92432	0.68445	
417.0	0.0	0.91846	0.6806	
418.0	0.0	0.91351	0.68317	
419.0	0.0	0.9071	0.67987	
420.0	0.0	0.90088	0.67401	
421.0	0.0	0.89392	0.67291	
422.0	0.0	0.88623	0.66998	
423.0	0.0	0.87891	0.66064	
424.0	0.0	0.8714	0.65973	
425.0	0.0	0.86353	0.65643	
426.0	0.0	0.8551	0.64856	
427.0	0.0	0.84778	0.64471	
428.0	0.0	0.84009	0.6416	
429.0	0.0	0.83203	0.64307	
430.0	0.0	0.82397	0.63593	
431.0	0.0	0.81665	0.63757	
432.0	0.0	0.80859	0.63428	
433.0	0.0	0.80127	0.63208	
434.0	0.0	0.79266	0.62622	
435.0	0.0	0.78662	0.62622	
436.0	0.0	0.77966	0.62036	
437.0	0.0	0.77417	0.62128	
438.0	0.0	0.76758	0.62091	
439.0	0.0	0.76282	0.61835	
440.0	0.0	0.75806	0.61688	
441.0	0.0	0.7533	0.61487	
442.0	0.0	0.74927	0.61084	
443.0	0.0	0.74487	0.60864	
444.0	0.0	0.73975	0.61304	
445.0	0.0	0.73608	0.61139	
446.0	0.0	0.73389	0.60168	
447.0	0.0	0.73206	0.60352	
448.0	0.0	0.72986	0.59546	
449.0	0.0	0.72839	0.59528	
450.0	0.0	0.72473	0.59052	
451.0	0.0	0.72144	0.58218	
452.0	0.0	0.71777	0.58301	
453.0	0.0	0.71484	0.58063	
454.0	0.0	0.71228	0.57715	
455.0	0.0	0.71191	0.57349	
456.0	0.0	0.71191	0.56946	
457.0	0.0	0.7121	0.57092	
458.0	0.0	0.71265	0.57019	
459.0	0.0	0.71448	0.56763	
460.0	0.0	0.71667	0.56635	
461.0	0.0	0.71851	0.56635	
462.0	0.0	0.72034	0.57349	
463.0	0.0	0.72162	0.57184	
464.0	0.0	0.72363	0.57294	
465.0	0.0	0.7251	0.56946	
466.0	0.0	0.72693	0.56635	
467.0	0.0	0.72839	0.55811	
468.0	0.0	0.73022	0.55298	
469.0	0.0	0.73242	0.54749	
470.0	0.0	0.73389	0.54346	
471.0	0.0	0.73535	0.53938	
472.0	0.0	0.73718	0.52753	
473.0	0.0	0.73901	0.52332	
474.0	0.0	0.74139	0.5191	
475.0	0.0	0.74268	0.51398	
476.0	0.0	0.74304	0.50958	
477.0	0.0	0.74377	0.50336	
478.0	0.0	0.74414	0.49603	
479.0	0.0	0.74359	0.4942	
480.0	0.0	0.74377	0.48761	
481.0	0.0	0.74304	0.48413	
482.0	0.0	0.74121	0.47882	
483.0	0.0	0.74011	0.47314	
484.0	0.0	0.73975	0.46472	
485.0	0.0	0.73901	0.46143	
486.0	0.0	0.73828	0.45026	
487.0	0.0	0.73682	0.43799	
488.0	0.0	0.73389	0.42334	
489.0	0.0	0.72858	0.40704	
490.0	0.0	0.72363	0.38855	
491.0	0.0	0.71576	0.37225	
492.0	0.0	0.70825	0.35156	
493.0	0.0	0.70093	0.3327	
494.0	0.0	0.69397	0.30853	
495.0	0.0	0.68994	0.28619	
496.0	0.0	0.68628	0.25415	
497.0	0.0	0.68225	0.22522	
498.0	0.0	0.67712	0.19446	
499.0	0.0	0.67053	0.17102	
500.0	0.0	0.66339	0.14832	
501.0	0.0	0.6557	0.11517	
502.0	0.0	0.64746	0.08185	
503.0	0.0	0.63831	0.0564	
504.0	0.0	0.62915	0.0293	
505.0	0.0	0.61853	-0.00568	
506.0	0.0	0.60828	-0.03625	
507.0	0.0	0.59747	-0.08148	
508.0	0.0	0.58594	-0.10693	
509.0	0.0	0.57404	-0.13385	
510.0	0.0	0.56122	-0.16956	
511.0	0.0	0.54895	-0.20892	
512.0	0.0	0.53503	-0.23108	
513.0	0.0	0.52158	-0.26862	
514.0	0.0	0.5083	-0.28656	
515.0	0.0	0.49475	-0.32025	
516.0	0.0	0.48267	-0.34314	
517.0	0.0	0.47021	-0.35651	
518.0	0.0	0.45813	-0.38077	
519.0	0.0	0.44678	-0.40375	
520.0	0.0	0.43579	-0.42883	
521.0	0.0	0.4248	-0.44971	
522.0	0.0	0.41455	-0.47076	
523.0	0.0	0.40393	-0.49347	
524.0	0.0	0.39441	-0.51288	
525.0	0.0	0.38525	-0.52579	
526.0	0.0	0.3761	-0.54144	
527.0	0.0	0.36621	-0.55746	
528.0	0.0	0.35706	-0.56635	
529.0	0.0	0.34753	-0.58191	
530.0	0.0	0.33728	-0.59564	
531.0	0.0	0.32776	-0.61359	
532.0	0.0	0.3186	-0.62599	
533.0	0.0	0.30927	-0.63739	
534.0	0.0	0.29974	-0.65259	
535.0	0.0	0.29077	-0.67108	
536.0	0.0	0.28107	-0.68134	
537.0	0.0	0.27173	-0.69173	
538.0	0.0	0.26221	-0.70601	
539.0	0.0	0.25397	-0.7262	
540.0	0.0	0.24646	-0.73444	
541.0	0.0	0.23895	-0.75385	
542.0	0.0	0.23364	-0.77252	
543.0	0.0	0.22705	-0.79596	
544.0	0.0	0.21973	-0.8269	
545.0	0.0	0.2113	-0.85634	
546.0	0.0	0.20087	-0.88678	
547.0	0.0	0.18915	-0.91841	
548.0	0.0	0.17358	-0.95004	
549.0	0.0	0.1571	-0.98309	
550.0	0.0	0.13733	-1.01221	
551.0	0.0	0.11737	-1.03816	
552.0	0.0	0.09558	-1.0627	
553.0	0.0	0.07288	-1.08984	
554.0	0.0	0.05054	-1.11108	
555.0	0.0	0.02783	-1.1358	
556.0	0.0	0.00531	-1.15256	
557.0	0.0	-0.01721	-1.17068	
558.0	0.0	-0.03955	-1.19037	
559.0	0.0	-0.06152	-1.20346	
560.0	0.0	-0.08386	-1.21161	
561.0	0.0	-0.10547	-1.2204	
562.0	0.0	-0.12634	-1.22589	
563.0	0.0	-0.14648	-1.2247	
564.0	0.0	-0.16443	-1.22365	
565.0	0.0	-0.18237	-1.21912	
566.0	0.0	-0.19904	-1.2106	
567.0	0.0	-0.21552	-1.20396	
568.0	0.0	-0.23108	-1.19275	
569.0	0.0	-0.24609	-1.18112	
570.0	0.0	-0.25983	-1.16858	
571.0	0.0	-0.27264	-1.15466	
572.0	0.0	-0.28473	-1.13763	
573.0	0.0	-0.2959	-1.12408	
574.0	0.0	-0.30652	-1.09758	
575.0	0.0	-0.31641	-1.07501	
576.0	0.0	-0.32474	-1.04214	
577.0	0.0	-0.33252	-1.00919	
578.0	0.0	-0.33984	-0.97769	
579.0	0.0	-0.34534	-0.95123	
580.0	0.0	-0.35138	-0.9147	
581.0	0.0	-0.35651	-0.89136	
582.0	0.0	-0.36145	-0.85886	
583.0	0.0	-0.36731	-0.82672	
584.0	0.0	-0.37335	-0.79033	
585.0	0.0	-0.37921	-0.76135	
586.0	0.0	-0.38525	-0.73096	
587.0	0.0	-0.39148	-0.70001	
588.0	0.0	-0.39734	-0.66467	
589.0	0.0	-0.40302	-0.63565	
590.0	0.0	-0.40823	-0.60187	
591.0	0.0	-0.4129	-0.56909	
592.0	0.0	-0.41711	-0.53503	
593.0	0.0	-0.42078	-0.49805	
594.0	0.0	-0.42371	-0.45062	
595.0	0.0	-0.4259	-0.40833	
596.0	0.0	-0.42773	-0.37134	
597.0	0.0	-0.42847	-0.32034	
598.0	0.0	-0.42957	-0.26248	
599.0	0.0	-0.42957	-0.20581	
600.0	0.0	-0.42883	-0.15619	
601.0	0.0	-0.42828	-0.09064	
602.0	0.0	-0.42682	-0.02838	
603.0	0.0	-0.42499	0.02376	
604.0	0.0	-0.42242	0.08643	
605.0	0.0	-0.4184	0.14685	
606.0	0.0	-0.41455	0.20929	
607.0	0.0	-0.41071	0.26514	
608.0	0.0	-0.40631	0.32172	
609.0	0.0	-0.40283	0.3772	
610.0	0.0	-0.40063	0.43048	
611.0	0.0	-0.39807	0.4964	
612.0	0.0	-0.39551	0.54263	
613.0	0.0	-0.39203	0.59784	
614.0	0.0	-0.38855	0.63574	
615.0	0.0	-0.38434	0.6947	
616.0	0.0	-0.38177	0.72688	
617.0	0.0	-0.38086	0.76703	
618.0	0.0	-0.38068	0.80713	
619.0	0.0	-0.38159	0.83643	
620.0	0.0	-0.38123	0.86847	
621.0	0.0	-0.38049	0.89905	
622.0	0.0	-0.37848	0.9278	
623.0	0.0	-0.37701	0.95728	
624.0	0.0	-0.37463	0.9754	
625.0	0.0	-0.37244	0.99792	
626.0	0.0	-0.37079	1.01807	
627.0	0.0	-0.36951	1.03986	
628.0	0.0	-0.36841	1.06183	
629.0	0.0	-0.36731	1.08142	
630.0	0.0	-0.36621	1.09332	
631.0	0.0	-0.36383	1.11035	
632.0	0.0	-0.36182	1.11603	
633.0	0.0	-0.3598	1.1283	
634.0	0.0	-0.35706	1.13086	
635.0	0.0	-0.35431	1.13617	
636.0	0.0	-0.35211	1.14551	
637.0	0.0	-0.35046	1.15009	
638.0	0.0	-0.349	1.14569	
639.0	0.0	-0.3479	1.15649	
640.0	0.0	-0.34717	1.15778	
641.0	0.0	-0.34607	1.15228	
642.0	0.0	-0.34479	1.15082	
643.0	0.0	-0.3457	1.15118	
644.0	0.0	-0.34607	1.14056	
645.0	0.0	-0.34698	1.13928	
646.0	0.0	-0.3468	1.12976	
647.0	0.0	-0.34717	1.12427	
648.0	0.0	-0.34772	1.11987	
649.0	0.0	-0.34918	1.11786	
650.0	0.0	-0.35046	1.11182	
651.0	0.0	-0.35248	1.10687	
652.0	0.0	-0.35504	1.10834	
653.0	0.0	-0.35724	1.11401	
654.0	0.0	-0.36099	1.10907	
655.0	0.0	-0.36511	1.1109	
656.0	0.0	-0.36987	1.11475	
657.0	0.0	-0.37537	1.1087	
658.0	0.0	-0.37994	1.11035	
659.0	0.0	-0.38489	1.10687	
660.0	0.0	-0.38947	1.10303	
661.0	0.0	-0.39404	1.0968	
662.0	0.0	-0.39899	1.09827	
663.0	0.0	-0.40384	1.0968	
664.0	0.0	-0.40869	1.09918	
665.0	0.0	-0.41418	1.11182	
666.0	0.0	-0.41931	1.11475	
667.0	0.0	-0.42444	1.12079	
668.0	0.0	-0.42902	1.13049	
669.0	0.0	-0.43341	1.13361	
670.0	0.0	-0.43707	1.14221	
671.0	0.0	-0.44055	1.138	
672.0	0.0	-0.44421	1.14368	
673.0	0.0	-0.44742	1.14624	
674.0	0.0	-0.45062	1.1499	
675.0	0.0	-0.4541	1.14954	
676.0	0.0	-0.4574	1.14917	
677.0	0.0	-0.46014	1.15283	
678.0	0.0	-0.46216	1.14716	
679.0	0.0	-0.46326	1.14752	
680.0	0.0	-0.46399	1.14203	
681.0	0.0	-0.46399	1.14313	
682.0	0.0	-0.46472	1.13617	
683.0	0.0	-0.46362	1.13159	
684.0	0.0	-0.46326	1.12646	
685.0	0.0	-0.46216	1.12244	
686.0	0.0	-0.46106	1.12152	
687.0	0.0	-0.45978	1.125	
688.0	0.0	-0.45721	1.12317	
689.0	0.0	-0.45447	1.11914	
690.0	0.0	-0.45227	1.11108	
691.0	0.0	-0.44897	1.11108	
692.0	0.0	-0.44604	1.10303	
693.0	0.0	-0.44348	1.10188	
694.0	0.0	-0.44238	1.08746	
695.0	0.0	-0.44092	1.09442	
696.0	0.0	-0.43964	1.09387	
697.0	0.0	-0.43781	1.07135	
698.0	0.0	-0.43579	1.07812	
699.0	0.0	-0.43158	1.07007	
700.0	0.0	-0.42764	1.07025	
701.0	0.0	-0.42261	1.06165	
702.0	0.0	-0.41858	1.06311	
703.0	0.0	-0.41345	1.06494	
704.0	0.0	-0.40759	1.06128	
705.0	0.0	-0.40155	1.05501	
706.0	0.0	-0.39404	1.05615	
707.0	0.0	-0.38635	1.04919	
708.0	0.0	-0.37903	1.04718	
709.0	0.0	-0.37134	1.04608	
710.0	0.0	-0.36438	1.04132	
711.0	0.0	-0.35706	1.04462	
712.0	0.0	-0.35028	1.04974	
713.0	0.0	-0.34387	1.04333	
714.0	0.0	-0.33746	1.04333	
715.0	0.0	-0.33142	1.03784	
716.0	0.0	-0.32538	1.03308	
717.0	0.0	-0.31915	1.02466	
718.0	0.0	-0.31348	1.02026	
719.0	0.0	-0.30835	1.01367	
720.0	0.0	-0.30286	1.00195	
721.0	0.0	-0.29663	0.99994	
722.0	0.0	-0.29041	0.98804	
723.0	0.0	-0.28308	0.97852	
724.0	0.0	-0.27612	0.95892	
725.0	0.0	-0.2688	0.95801	
726.0	0.0	-0.26221	0.95325	
727.0	0.0	-0.25433	0.9408	
728.0	0.0	-0.24664	0.93695	
729.0	0.0	-0.23932	0.93018	
730.0	0.0	-0.23236	0.91846	
731.0	0.0	-0.22705	0.91736	
732.0	0.0	-0.22119	0.9104	
733.0	0.0	-0.21698	0.89777	
734.0	0.0	-0.21277	0.89355	
735.0	0.0	-0.20892	0.88843	
736.0	0.0	-0.20508	0.88586	
737.0	0.0	-0.20215	0.87982	
738.0	0.0	-0.19849	0.87396	
739.0	0.0	-0.1962	0.87158	
740.0	0.0	-0.19336	0.86279	
741.0	0.0	-0.19153	0.8595	
742.0	0.0	-0.18915	0.85657	
743.0	0.0	-0.18677	0.854	
744.0	0.0	-0.18475	0.8399	
745.0	0.0	-0.18274	0.84503	
746.0	0.0	-0.17981	0.84393	
747.0	0.0	-0.17761	0.83441	
748.0	0.0	-0.17523	0.8291	
749.0	0.0	-0.17303	0.82544	
750.0	0.0	-0.1712	0.82581	
751.0	0.0	-0.16992	0.81409	
752.0	0.0	-0.16809	0.80887	
753.0	0.0	-0.16589	0.80859	
754.0	0.0	-0.16406	0.80182	
755.0	0.0	-0.16113	0.80219	
756.0	0.0	-0.15857	0.79468	
757.0	0.0	-0.15582	0.79504	
758.0	0.0	-0.15308	0.79321	
759.0	0.0	-0.15051	0.78973	
760.0	0.0	-0.14905	0.77362	
761.0	0.0	-0.14685	0.77325	
762.0	0.0	-0.14465	0.77618	
763.0	0.0	-0.14154	0.77216	
764.0	0.0	-0.13861	0.75989	
765.0	0.0	-0.1344	0.7619	
766.0	0.0	-0.13055	0.74725	
767.0	0.0	-0.12762	0.74854	
768.0	0.0	-0.12561	0.74835	
769.0	0.0	-0.12341	0.73846	
770.0	0.0	-0.12122	0.73535	
771.0	0.0	-0.11847	0.73114	
772.0	0.0	-0.11316	0.72327	
773.0	0.0	-0.10822	0.72253	
774.0	0.0	-0.10217	0.71228	
775.0	0.0	-0.09622	0.71265	
776.0	0.0	-0.09009	0.70496	
777.0	0.0	-0.0835	0.70496	
778.0	0.0	-0.07764	0.6991	
779.0	0.0	-0.07031	0.69232	
780.0	0.0	-0.06335	0.68628	
781.0	0.0	-0.05603	0.68903	
782.0	0.0	-0.04834	0.67969	
783.0	0.0	-0.04102	0.67841	
784.0	0.0	-0.03333	0.672	
785.0	0.0	-0.02563	0.66669	
786.0	0.0	-0.01758	0.65369	
787.0	0.0	-0.01007	0.66211	
788.0	0.0	-0.00275	0.65222	
789.0	0.0	0.00439	0.63995	
790.0	0.0	0.0108	0.63867	
791.0	0.0	0.01721	0.63666	
792.0	0.0	0.02289	0.62933	
793.0	0.0	0.02728	0.61688	
794.0	0.0	0.03204	0.61139	
795.0	0.0	0.03699	0.59875	
796.0	0.0	0.04211	0.5993	
797.0	0.0	0.04779	0.60352	
798.0	0.0	0.05273	0.59711	
799.0	0.0	0.05676	0.60205	
800.0	0.0	0.06189	0.60095	
801.0	0.0	0.0661	0.59564	
802.0	0.0	0.07068	0.59436	
803.0	0.0	0.07434	0.59363	
804.0	0.0	0.07727	0.59033	
805.0	0.0	0.07874	0.58777	
806.0	0.0	0.0791	0.58621	
807.0	0.0	0.0791	0.58447	
808.0	0.0	0.0791	0.58118	
809.0	0.0	0.07855	0.58063	
810.0	0.0	0.07782	0.57642	
811.0	0.0	0.07782	0.57751	
812.0	0.0	0.07819	0.56506	
813.0	0.0	0.0791	0.56598	
814.0	0.0	0.08057	0.57166	
815.0	0.0	0.08203	0.5744	
816.0	0.0	0.08313	0.57385	
817.0	0.0	0.08496	0.56708	
818.0	0.0	0.08588	0.57275	
819.0	0.0	0.08789	0.57037	
820.0	0.0	0.08954	0.5658	
821.0	0.0	0.09192	0.55334	
822.0	0.0	0.09467	0.54254	
823.0	0.0	0.09631	0.53265	
824.0	0.0	0.09961	0.52332	
825.0	0.0	0.10181	0.51727	
826.0	0.0	0.10437	0.50757	
827.0	0.0	0.10638	0.50281	
828.0	0.0	0.10803	0.49786	
829.0	0.0	0.10986	0.49832	
830.0	0.0	0.11169	0.48248	
831.0	0.0	0.11353	0.48413	
832.0	0.0	0.11499	0.48175	
833.0	0.0	0.11572	0.47589	
834.0	0.0	0.11719	0.47791	
835.0	0.0	0.11792	0.47626	
836.0	0.0	0.11902	0.48395	
837.0	0.0	0.11957	0.479	
838.0	0.0	0.12213	0.47314	
839.0	0.0	0.12543	0.46907	
840.0	0.0	0.13037	0.46234	
841.0	0.0	0.13293	0.46907	
842.0	0.0	0.13531	0.45703	
843.0	0.0	0.13623	0.46161	
844.0	0.0	0.1366	0.45374	
845.0	0.0	0.13696	0.46564	
846.0	0.0	0.13806	0.4563	
847.0	0.0	0.14099	0.46143	
848.0	0.0	0.14594	0.44843	
849.0	0.0	0.15234	0.44916	
850.0	0.0	0.15967	0.46399	
851.0	0.0	0.16809	0.45735	
852.0	0.0	0.17834	0.4563	
853.0	0.0	0.18896	0.46527	
854.0	0.0	0.2016	0.47278	
855.0	0.0	0.21552	0.47461	
856.0	0.0	0.22925	0.47845	
857.0	0.0	0.24133	0.47141	
858.0	0.0	0.2514	0.46271	
859.0	0.0	0.25781	0.45071	
860.0	0.0	0.26221	0.44952	
861.0	0.0	0.26166	0.43506	
862.0	0.0	0.25763	0.43304	
863.0	0.0	0.24994	0.41675	
864.0	0.0	0.2406	0.42151	
865.0	0.0	0.22943	0.40759	
866.0	0.0	0.21771	0.42188	
867.0	0.0	0.20691	0.42453	
868.0	0.0	0.19574	0.44385	
869.0	0.0	0.18439	0.45795	
870.0	0.0	0.17358	0.46454	
871.0	0.0	0.16589	0.48079	
872.0	0.0	0.15765	0.47992	
873.0	0.0	0.15088	0.48212	
874.0	0.0	0.14832	0.48578	
875.0	0.0	0.14612	0.48193	
876.0	0.0	0.14612	0.47791	
877.0	0.0	0.14868	0.47791	
878.0	0.0	0.15381	0.4649	
879.0	0.0	0.15967	0.47388	
880.0	0.0	0.16699	0.46747	
881.0	0.0	0.17578	0.45685	
882.0	0.0	0.1853	0.44714	
883.0	0.0	0.19537	0.44788	
884.0	0.0	0.20544	0.45264	
885.0	0.0	0.21625	0.45396	
886.0	0.0	0.22742	0.45483	
887.0	0.0	0.2384	0.44897	
888.0	0.0	0.24902	0.45081	
889.0	0.0	0.26001	0.44952	
890.0	0.0	0.26953	0.45392	
891.0	0.0	0.27795	0.44458	
892.0	0.0	0.28473	0.4541	
893.0	0.0	0.29095	0.46014	
894.0	0.0	0.2959	0.46321	
895.0	0.0	0.30011	0.46289	
896.0	0.0	0.30286	0.48047	
897.0	0.0	0.3056	0.47955	
898.0	0.0	0.30652	0.48798	
899.0	0.0	0.30615	0.479	
900.0	0.0	0.30597	0.48468	
901.0	0.0	0.30432	0.48651	
902.0	0.0	0.30304	0.47626	
903.0	0.0	0.30103	0.47791	
904.0	0.0	0.29865	0.47699	
905.0	0.0	0.29645	0.46619	
906.0	0.0	0.29462	0.46907	
907.0	0.0	0.29224	0.45905	
908.0	0.0	0.2915	0.46014	
909.0	0.0	0.29114	0.45135	
910.0	0.0	0.29004	0.45667	
911.0	0.0	0.28894	0.46381	
912.0	0.0	0.28784	0.46088	
913.0	0.0	0.28674	0.46234	
914.0	0.0	0.28674	0.46381	
915.0	0.0	0.28784	0.45612	
916.0	0.0	0.2915	0.45428	
917.0	0.0	0.29333	0.45044	
918.0	0.0	0.29517	0.46051	
919.0	0.0	0.2959	0.45795	
920.0	0.0	0.2948	0.45941	
921.0	0.0	0.29315	0.4585	
922.0	0.0	0.29297	0.45428	
923.0	0.0	0.2937	0.44751	
924.0	0.0	0.29663	0.4563	
925.0	0.0	0.30011	0.44788	
926.0	0.0	0.30505	0.45392	
927.0	0.0	0.31036	0.45502	
928.0	0.0	0.31567	0.46143	
929.0	0.0	0.3208	0.46069	
930.0	0.0	0.3241	0.46985	
931.0	0.0	0.32703	0.46527	
932.0	0.0	0.32959	0.466	
933.0	0.0	0.33179	0.45685	
934.0	0.0	0.33527	0.45502	
935.0	0.0	0.33838	0.45831	
936.0	0.0	0.34131	0.46143	
937.0	0.0	0.34442	0.45209	
938.0	0.0	0.34717	0.46014	
939.0	0.0	0.35046	0.45776	
940.0	0.0	0.35303	0.45959	
941.0	0.0	0.35486	0.45502	
942.0	0.0	0.35742	0.46051	
943.0	0.0	0.35889	0.45557	
944.0	0.0	0.36053	0.45392	
945.0	0.0	0.36108	0.45795	
946.0	0.0	0.36182	0.44861	
947.0	0.0	0.36218	0.4455	
948.0	0.0	0.36383	0.44952	
949.0	0.0	0.36475	0.45099	
950.0	0.0	0.36658	0.44788	
951.0	0.0	0.36786	0.44165	
952.0	0.0	0.36987	0.4411	
953.0	0.0	0.37134	0.44037	
954.0	0.0	0.3739	0.4433	
955.0	0.0	0.3761	0.43835	
956.0	0.0	0.3783	0.44531	
957.0	0.0	0.37976	0.43945	
958.0	0.0	0.38086	0.44128	
959.0	0.0	0.38123	0.45374	
960.0	0.0	0.38159	0.45465	
961.0	0.0	0.38159	0.45667	
962.0	0.0	0.38013	0.45648	
963.0	0.0	0.37903	0.46124	
964.0	0.0	0.37738	0.46893	
965.0	0.0	0.37482	0.47205	
966.0	0.0	0.37207	0.47662	
967.0	0.0	0.36969	0.46783	
968.0	0.0	0.36768	0.47864	
969.0	0.0	0.36456	0.48358	
970.0	0.0	0.36163	0.4845	
971.0	0.0	0.3598	0.48065	
972.0	0.0	0.35742	0.48944	
973.0	0.0	0.35522	0.4834	
974.0	0.0	0.35303	0.49054	
975.0	0.0	0.35156	0.49402	
976.0	0.0	0.35028	0.49768	
977.0	0.0	0.35028	0.49512	
978.0	0.0	0.34937	0.49182	
979.0	0.0	0.349	0.50519	
980.0	0.0	0.34827	0.49677	
981.0	0.0	0.34808	0.50317	
982.0	0.0	0.34735	0.5083	
983.0	0.0	0.3468	0.51068	
984.0	0.0	0.3457	0.49969	
985.0	0.0	0.34497	0.50775	
986.0	0.0	0.34497	0.50647	
987.0	0.0	0.34314	0.5094	
988.0	0.0	0.34167	0.50592	
989.0	0.0	0.34058	0.50519	
990.0	0.0	0.33911	0.51215	
991.0	0.0	0.33783	0.51196	
992.0	0.0	0.33545	0.51526	
993.0	0.0	0.33234	0.51288	
994.0	0.0	0.32812	0.51801	
995.0	0.0	0.32263	0.51984	
996.0	0.0	0.31531	0.51855	
997.0	0.0	0.30359	0.52917	
998.0	0.0	0.28619	0.5343	
999.0	0.0	0.25964	0.53503	
1000.0	0.0	0.22412	0.54346	
1001.0	0.0	0.17578	0.54108	
1002.0	0.0	0.11792	0.55444	
1003.0	0.0	0.04706	0.56799	
1004.0	0.0	-0.03589	0.58813	
1005.0	0.0	-0.12781	0.59729	
1006.0	0.0	-0.21753	0.60846	
1007.0	0.0	-0.29974	0.61963	
1008.0	0.0	-0.37244	0.63483	
1009.0	0.0	-0.43268	0.63702	
1010.0	0.0	-0.47882	0.633	
1011.0	0.0	-0.5061	0.6097	
1012.0	0.0	-0.51416	0.57971	
1013.0	0.0	-0.50354	0.54895	
1014.0	0.0	-0.47488	0.51965	
1015.0	0.0	-0.43048	0.48981	
1016.0	0.0	-0.375	0.46747	
1017.0	0.0	-0.31036	0.43391	
1018.0	0.0	-0.23987	0.43451	
1019.0	0.0	-0.16553	0.4303	
1020.0	0.0	-0.08972	0.4173	
1021.0	0.0	-0.01392	0.41254	
1022.0	0.0	0.06207	0.39496	
1023.0	0.0	0.13696	0.38013	
1024.0	0.0	0.21387	0.36914	
1025.0	0.0	0.29004	0.35577	
1026.0	0.0	0.36475	0.35188	
1027.0	0.0	0.43469	0.35184	
1028.0	0.0	0.49915	0.36072	
1029.0	0.0	0.55591	0.38123	
1030.0	0.0	0.61066	0.4021	
1031.0	0.0	0.65918	0.42389	
1032.0	0.0	0.68573	0.45557	
1033.0	0.0	0.68335	0.48724	
1034.0	0.0	0.65845	0.52112	
1035.0	0.0	0.62183	0.55756	
1036.0	0.0	0.56616	0.6123	
1037.0	0.0	0.48706	0.66888	
1038.0	0.0	0.40649	0.72876	
1039.0	0.0	0.33105	0.77893	
1040.0	0.0	0.26019	0.82214	
1041.0	0.0	0.19775	0.85657	
1042.0	0.0	0.14832	0.86751	
1043.0	0.0	0.10474	0.84576	
1044.0	0.0	0.06848	0.78973	
1045.0	0.0	0.04559	0.72858	
1046.0	0.0	0.04138	0.65222	
1047.0	0.0	0.05914	0.57587	
1048.0	0.0	0.09668	0.51196	
1049.0	0.0	0.15051	0.44824	
1050.0	0.0	0.21533	0.37885	
1051.0	0.0	0.29077	0.3241	
1052.0	0.0	0.3642	0.26239	
1053.0	0.0	0.42993	0.21277	
1054.0	0.0	0.48724	0.15674	
1055.0	0.0	0.53613	0.10107	
1056.0	0.0	0.58264	0.03369	
1057.0	0.0	0.62915	-0.03351	
1058.0	0.0	0.68079	-0.11719	
1059.0	0.0	0.73022	-0.17935	
1060.0	0.0	0.7749	-0.23767	
1061.0	0.0	0.81665	-0.28043	
1062.0	0.0	0.85254	-0.3197	
1063.0	0.0	0.88403	-0.34222	
1064.0	0.0	0.91498	-0.362	
1065.0	0.0	0.94556	-0.36969	
1066.0	0.0	0.97412	-0.36969	
1067.0	0.0	1.00415	-0.36163	
1068.0	0.0	1.03235	-0.34918	
1069.0	0.0	1.05835	-0.33563	
1070.0	0.0	1.07849	-0.32281	
1071.0	0.0	1.0979	-0.30688	
1072.0	0.0	1.11584	-0.29022	
1073.0	0.0	1.12573	-0.27484	
1074.0	0.0	1.12061	-0.25433	
1075.0	0.0	1.09277	-0.24646	
1076.0	0.0	1.04755	-0.22852	
1077.0	0.0	0.99939	-0.20526	
1078.0	0.0	0.96112	-0.17578	
1079.0	0.0	0.93091	-0.13898	
1080.0	0.0	0.88934	-0.0921	
1081.0	0.0	0.84192	-0.02161	
1082.0	0.0	0.79614	0.05859	
1083.0	0.0	0.75513	0.1463	
1084.0	0.0	0.71631	0.23456	
1085.0	0.0	0.67767	0.30359	
1086.0	0.0	0.64014	0.34882	
1087.0	0.0	0.60461	0.36768	
1088.0	0.0	0.57019	0.35138	
1089.0	0.0	0.5354	0.30835	
1090.0	0.0	0.49915	0.24756	
1091.0	0.0	0.46399	0.1842	
1092.0	0.0	0.42847	0.12286	
1093.0	0.0	0.39185	0.078	
1094.0	0.0	0.35559	0.04596	
1095.0	0.0	0.32227	0.03241	
1096.0	0.0	0.2937	0.02371	
1097.0	0.0	0.2666	0.01758	
1098.0	0.0	0.2417	0.00531	
1099.0	0.0	0.21899	-0.01208	
1100.0	0.0	0.20068	-0.04248	
1101.0	0.0	0.18695	-0.07095	
1102.0	0.0	0.17651	-0.10254	
1103.0	0.0	0.16718	-0.12964	
1104.0	0.0	0.15509	-0.15271	
1105.0	0.0	0.14246	-0.17139	
1106.0	0.0	0.1311	-0.18054	
1107.0	0.0	0.12231	-0.18201	
1108.0	0.0	0.11682	-0.18073	
1109.0	0.0	0.11316	-0.1767	
1110.0	0.0	0.11279	-0.16846	
1111.0	0.0	0.11536	-0.15857	
1112.0	0.0	0.12341	-0.14758	
1113.0	0.0	0.13843	-0.14117	
1114.0	0.0	0.15967	-0.13898	
1115.0	0.0	0.18457	-0.14227	
1116.0	0.0	0.20654	-0.14081	
1117.0	0.0	0.22412	-0.13806	
1118.0	0.0	0.24097	-0.13275	
1119.0	0.0	0.25854	-0.1322	
1120.0	0.0	0.27356	-0.11444	
1121.0	0.0	0.28711	-0.10785	
1122.0	0.0	0.29919	-0.08936	
1123.0	0.0	0.31238	-0.07214	
1124.0	0.0	0.3252	-0.04175	
1125.0	0.0	0.3382	-0.00531	
1126.0	0.0	0.34827	0.04248	
1127.0	0.0	0.3598	0.09961	
1128.0	0.0	0.3772	0.16095	
1129.0	0.0	0.39935	0.21826	
1130.0	0.0	0.42224	0.27008	
1131.0	0.0	0.44788	0.31183	
1132.0	0.0	0.47498	0.34332	
1133.0	0.0	0.50903	0.37299	
1134.0	0.0	0.55188	0.39441	
1135.0	0.0	0.60059	0.40924	
1136.0	0.0	0.65149	0.42792	
1137.0	0.0	0.70258	0.44788	
1138.0	0.0	0.75037	0.45941	
1139.0	0.0	0.79248	0.46545	
1140.0	0.0	0.82983	0.47205	
1141.0	0.0	0.86206	0.47791	
1142.0	0.0	0.89172	0.48074	
1143.0	0.0	0.91736	0.47754	
1144.0	0.0	0.94043	0.4682	
1145.0	0.0	0.96002	0.46399	
1146.0	0.0	0.97705	0.45923	
1147.0	0.0	0.99207	0.46655	
1148.0	0.0	1.00269	0.46729	
1149.0	0.0	1.01074	0.46454	
1150.0	0.0	1.01367	0.45978	
1151.0	0.0	1.00928	0.46069	
1152.0	0.0	1.00085	0.46307	
1153.0	0.0	0.98547	0.46234	
1154.0	0.0	0.96313	0.45795	
1155.0	0.0	0.93457	0.44458	
1156.0	0.0	0.90051	0.42645	
1157.0	0.0	0.86572	0.39148	
1158.0	0.0	0.82965	0.34698	
1159.0	0.0	0.79102	0.30835	
1160.0	0.0	0.7533	0.27521	
1161.0	0.0	0.71667	0.2417	
1162.0	0.0	0.68188	0.21863	
1163.0	0.0	0.64856	0.20618	
1164.0	0.0	0.61505	0.20636	
1165.0	0.0	0.58081	0.19702	
1166.0	0.0	0.54602	0.19135	
1167.0	0.0	0.51123	0.18384	
1168.0	0.0	0.47845	0.1713	
1169.0	0.0	0.44458	0.15326	
1170.0	0.0	0.41125	0.13312	
1171.0	0.0	0.37756	0.1073	
1172.0	0.0	0.34406	0.07782	
1173.0	0.0	0.31018	0.04578	
1174.0	0.0	0.27649	0.01437	
1175.0	0.0	0.24426	-0.02161	
1176.0	0.0	0.21423	-0.05914	
1177.0	0.0	0.18622	-0.09814	
1178.0	0.0	0.16003	-0.13458	
1179.0	0.0	0.13495	-0.1712	
1180.0	0.0	0.1106	-0.20892	
1181.0	0.0	0.0835	-0.24124	
1182.0	0.0	0.0553	-0.27484	
1183.0	0.0	0.02527	-0.31165	
1184.0	0.0	-0.00934	-0.34332	
1185.0	0.0	-0.05035	-0.38342	
1186.0	0.0	-0.09595	-0.42151	
1187.0	0.0	-0.14172	-0.45941	
1188.0	0.0	-0.18567	-0.49146	
1189.0	0.0	-0.22852	-0.53009	
1190.0	0.0	-0.27283	-0.56351	
1191.0	0.0	-0.3208	-0.60187	
1192.0	0.0	-0.36859	-0.63721	
1193.0	0.0	-0.41345	-0.6817	
1194.0	0.0	-0.45227	-0.7229	
1195.0	0.0	-0.48633	-0.76703	
1196.0	0.0	-0.51782	-0.80411	
1197.0	0.0	-0.5495	-0.84659	
1198.0	0.0	-0.57825	-0.88431	
1199.0	0.0	-0.60278	-0.91498	
1200.0	0.0	-0.62146	-0.94446	
1201.0	0.0	-0.63428	-0.97174	
1202.0	0.0	-0.64105	-1.00031	
1203.0	0.0	-0.6427	-1.02484	
1204.0	0.0	-0.63867	-1.0459	
1205.0	0.0	-0.6319	-1.07346	
1206.0	0.0	-0.62073	-1.09232	
1207.0	0.0	-0.60791	-1.12015	
1208.0	0.0	-0.59546	-1.14221	
1209.0	0.0	-0.58209	-1.157	
1210.0	0.0	-0.56653	-1.1792	
1211.0	0.0	-0.54932	-1.19193	
1212.0	0.0	-0.52551	-1.20612	
1213.0	0.0	-0.49329	-1.21326	
1214.0	0.0	-0.45447	-1.23134	
1215.0	0.0	-0.41043	-1.24626	
1216.0	0.0	-0.3631	-1.25803	
1217.0	0.0	-0.31586	-1.27386	
1218.0	0.0	-0.27411	-1.28384	
1219.0	0.0	-0.23529	-1.29208	
1220.0	0.0	-0.19464	-1.29181	
1221.0	0.0	-0.1485	-1.2897	
1222.0	0.0	-0.10272	-1.28737	
1223.0	0.0	-0.06042	-1.27844	
1224.0	0.0	-0.01831	-1.2654	
1225.0	0.0	0.02051	-1.24667	
1226.0	0.0	0.06042	-1.22296	
1227.0	0.0	0.1051	-1.19733	
1228.0	0.0	0.15161	-1.16611	
1229.0	0.0	0.19867	-1.13223	
1230.0	0.0	0.24426	-1.0984	
1231.0	0.0	0.28839	-1.06732	
1232.0	0.0	0.3316	-1.03784	
1233.0	0.0	0.37189	-1.00415	
1234.0	0.0	0.40906	-0.9722	
1235.0	0.0	0.43799	-0.94135	
1236.0	0.0	0.45813	-0.91168	
1237.0	0.0	0.46948	-0.87396	
1238.0	0.0	0.47351	-0.83821	
1239.0	0.0	0.47186	-0.80255	
1240.0	0.0	0.46545	-0.76575	
1241.0	0.0	0.4563	-0.72491	
1242.0	0.0	0.44604	-0.67822	
1243.0	0.0	0.43396	-0.62238	
1244.0	0.0	0.42224	-0.56305	
1245.0	0.0	0.40942	-0.50043	
1246.0	0.0	0.39734	-0.41867	
1247.0	0.0	0.38416	-0.33865	
1248.0	0.0	0.37061	-0.25781	
1249.0	0.0	0.35559	-0.1701	
1250.0	0.0	0.34058	-0.07104	
1251.0	0.0	0.3241	0.02106	
1252.0	0.0	0.30853	0.10675	
1253.0	0.0	0.2937	0.18073	
1254.0	0.0	0.27832	0.2428	
1255.0	0.0	0.26367	0.29535	
1256.0	0.0	0.24976	0.33746	
1257.0	0.0	0.23419	0.3739	
1258.0	0.0	0.21945	0.40814	
1259.0	0.0	0.20544	0.4314	
1260.0	0.0	0.19043	0.46088	
1261.0	0.0	0.17615	0.49072	
1262.0	0.0	0.16113	0.52496	
1263.0	0.0	0.14575	0.55573	
1264.0	0.0	0.12909	0.58228	
1265.0	0.0	0.11133	0.61304	
1266.0	0.0	0.09229	0.63867	
1267.0	0.0	0.07104	0.68134	
1268.0	0.0	0.04651	0.7099	
1269.0	0.0	0.01978	0.74323	
1270.0	0.0	-0.00952	0.7782	
1271.0	0.0	-0.04138	0.80676	
1272.0	0.0	-0.07617	0.83423	
1273.0	0.0	-0.11334	0.85071	
1274.0	0.0	-0.15198	0.87799	
1275.0	0.0	-0.19025	0.89209	
1276.0	0.0	-0.22687	0.9137	
1277.0	0.0	-0.26038	0.93782	
1278.0	0.0	-0.29004	0.9516	
1279.0	0.0	-0.31641	0.97247	
1280.0	0.0	-0.34058	0.98218	
1281.0	0.0	-0.36346	0.99976	
1282.0	0.0	-0.38452	1.00726	
1283.0	0.0	-0.40631	1.02649	
1284.0	0.0	-0.4281	1.04132	
1285.0	0.0	-0.45026	1.06128	
1286.0	0.0	-0.47058	1.0708	
1287.0	0.0	-0.48962	1.08344	
1288.0	0.0	-0.50665	1.08234	
1289.0	0.0	-0.52084	1.0686	
1290.0	0.0	-0.53229	1.04242	
1291.0	0.0	-0.54071	1.01166	
1292.0	0.0	-0.54561	0.98181	
1293.0	0.0	-0.5462	0.94318	
1294.0	0.0	-0.54474	0.91626	
1295.0	0.0	-0.54034	0.88037	
1296.0	0.0	-0.53339	0.8595	
1297.0	0.0	-0.52588	0.83368	
1298.0	0.0	-0.51837	0.83771	
1299.0	0.0	-0.51361	0.83313	
1300.0	0.0	-0.50757	0.83569	
1301.0	0.0	-0.49658	0.83771	
1302.0	0.0	-0.48779	0.85199	
1303.0	0.0	-0.48743	0.86133	
1304.0	0.0	-0.49805	0.85382	
1305.0	0.0	-0.51736	0.82764	
1306.0	0.0	-0.54016	0.80603	
1307.0	0.0	-0.56168	0.78809	
1308.0	0.0	-0.58081	0.77344	
1309.0	0.0	-0.59802	0.77051	
1310.0	0.0	-0.61707	0.75916	
1311.0	0.0	-0.63409	0.76794	
1312.0	0.0	-0.65359	0.74579	
1313.0	0.0	-0.67181	0.72363	
1314.0	0.0	-0.69232	0.68866	
1315.0	0.0	-0.71191	0.65735	
1316.0	0.0	-0.7337	0.64215	
1317.0	0.0	-0.75385	0.6438	
1318.0	0.0	-0.77509	0.6546	
1319.0	0.0	-0.79321	0.6655	
1320.0	0.0	-0.81171	0.71558	
1321.0	0.0	-0.82416	0.75824	
1322.0	0.0	-0.83505	0.79285	
1323.0	0.0	-0.83734	0.82361	
1324.0	0.0	-0.83752	0.8269	
1325.0	0.0	-0.8291	0.82489	
1326.0	0.0	-0.82214	0.79688	
1327.0	0.0	-0.81409	0.79193	
1328.0	0.0	-0.81683	0.75677	
1329.0	0.0	-0.82288	0.72583	
1330.0	0.0	-0.83972	0.70569	
1331.0	0.0	-0.85616	0.68582	
1332.0	0.0	-0.88074	0.6557	
1333.0	0.0	-0.91013	0.63483	
1334.0	0.0	-0.94464	0.60553	
1335.0	0.0	-0.97632	0.57568	
1336.0	0.0	-1.0058	0.55188	
1337.0	0.0	-1.03345	0.51819	
1338.0	0.0	-1.05835	0.4942	
1339.0	0.0	-1.07716	0.45648	
1340.0	0.0	-1.09424	0.42737	
1341.0	0.0	-1.10229	0.37994	
1342.0	0.0	-1.1077	0.32611	
1343.0	0.0	-1.10349	0.29095	
1344.0	0.0	-1.09955	0.25745	
1345.0	0.0	-1.08746	0.22687	
1346.0	0.0	-1.07703	0.20233	
1347.0	0.0	-1.05872	0.18475	
1348.0	0.0	-1.0448	0.22009	
1349.0	0.0	-1.0253	0.23126	
1350.0	0.0	-1.00882	0.26349	
1351.0	0.0	-0.98785	0.30084	
1352.0	0.0	-0.97229	0.35248	
1353.0	0.0	-0.95499	0.36896	
1354.0	0.0	-0.94464	0.42664	
1355.0	0.0	-0.92908	0.47662	
1356.0	0.0	-0.91663	0.5061	
1357.0	0.0	-0.89777	0.54382	
1358.0	0.0	-0.88074	0.57751	
1359.0	0.0	-0.85652	0.6015	
1360.0	0.0	-0.83295	0.62366	
1361.0	0.0	-0.80145	0.64783	
1362.0	0.0	-0.77188	0.66595	
1363.0	0.0	-0.73627	0.67438	
1364.0	0.0	-0.70184	0.68774	
1365.0	0.0	-0.66284	0.70532	
1366.0	0.0	-0.62476	0.71027	
1367.0	0.0	-0.58081	0.72583	
1368.0	0.0	-0.53961	0.73645	
1369.0	0.0	-0.49686	0.7533	
1370.0	0.0	-0.465	0.76959	
1371.0	0.0	-0.4433	0.79706	
1372.0	0.0	-0.43927	0.81949	
1373.0	0.0	-0.43762	0.84705	
1374.0	0.0	-0.44604	0.86115	
1375.0	0.0	-0.45465	0.86719	
1376.0	0.0	-0.47113	0.87085	
1377.0	0.0	-0.4845	0.86751	
1378.0	0.0	-0.50134	0.84407	
1379.0	0.0	-0.50977	0.82416	
1380.0	0.0	-0.51709	0.79559	
1381.0	0.0	-0.5105	0.76355	
1382.0	0.0	-0.50043	0.7077	
1383.0	0.0	-0.48138	0.68701	
1384.0	0.0	-0.46307	0.64485	
1385.0	0.0	-0.43872	0.62457	
1386.0	0.0	-0.41895	0.60718	
1387.0	0.0	-0.39697	0.59637	
1388.0	0.0	-0.38086	0.59564	
1389.0	0.0	-0.36292	0.60333	
1390.0	0.0	-0.35156	0.61487	
1391.0	0.0	-0.33948	0.63313	
1392.0	0.0	-0.3338	0.64673	
1393.0	0.0	-0.32666	0.67163	
1394.0	0.0	-0.32556	0.68994	
1395.0	0.0	-0.3208	0.71045	
1396.0	0.0	-0.32465	0.72473	
1397.0	0.0	-0.32629	0.7522	
1398.0	0.0	-0.33499	0.7749	
1399.0	0.0	-0.34131	0.8031	
1400.0	0.0	-0.35229	0.81335	
1401.0	0.0	-0.3587	0.85126	
1402.0	0.0	-0.36914	0.87177	
1403.0	0.0	-0.37573	0.88834	
1404.0	0.0	-0.38617	0.90161	
1405.0	0.0	-0.39258	0.91919	
1406.0	0.0	-0.4043	0.93475	
1407.0	0.0	-0.41144	0.95215	
1408.0	0.0	-0.42114	0.96918	
1409.0	0.0	-0.42462	0.99188	
1410.0	0.0	-0.42847	1.00342	
1411.0	0.0	-0.42499	1.0177	
1412.0	0.0	-0.42188	1.02283	
1413.0	0.0	-0.41235	1.021	
1414.0	0.0	-0.40393	1.01349	
1415.0	0.0	-0.39093	1.00232	
1416.0	0.0	-0.37628	1.00323	
1417.0	0.0	-0.3717	0.98602	
1418.0	0.0	-0.35724	0.97293	
1419.0	0.0	-0.35046	0.95819	
1420.0	0.0	-0.33417	0.94849	
1421.0	0.0	-0.31897	0.93951	
1422.0	0.0	-0.2948	0.92999	
1423.0	0.0	-0.27466	0.91278	
1424.0	0.0	-0.24939	0.90143	
1425.0	0.0	-0.22852	0.88504	
1426.0	0.0	-0.20215	0.86096	
1427.0	0.0	-0.17816	0.85785	
1428.0	0.0	-0.14557	0.84357	
1429.0	0.0	-0.11133	0.83716	
1430.0	0.0	-0.06812	0.82635	
1431.0	0.0	-0.0249	0.81921	
1432.0	0.0	0.02472	0.81226	
1433.0	0.0	0.0705	0.79944	
1434.0	0.0	0.11957	0.79486	
1435.0	0.0	0.16223	0.79358	
1436.0	0.0	0.20636	0.79688	
1437.0	0.0	0.24188	0.79028	
1438.0	0.0	0.27869	0.79852	
1439.0	0.0	0.30634	0.80786	
1440.0	0.0	0.33527	0.81812	
1441.0	0.0	0.35742	0.81464	
1442.0	0.0	0.38086	0.82581	
1443.0	0.0	0.39771	0.84229	
1444.0	0.0	0.4184	0.85913	
1445.0	0.0	0.43341	0.85565	
1446.0	0.0	0.45483	0.87671	
1447.0	0.0	0.47241	0.88678	
1448.0	0.0	0.4975	0.90344	
1449.0	0.0	0.52222	0.93494	
1450.0	0.0	0.54602	0.9494	
1451.0	0.0	0.56836	0.97632	
1452.0	0.0	0.58923	0.99536	
1453.0	0.0	0.60828	1.01733	
1454.0	0.0	0.62622	1.0459	
1455.0	0.0	0.64014	1.07845	
1456.0	0.0	0.65076	1.10138	
1457.0	0.0	0.65698	1.12994	
1458.0	0.0	0.65918	1.14111	
1459.0	0.0	0.65808	1.17096	
1460.0	0.0	0.65497	1.19037	
1461.0	0.0	0.6524	1.20337	
1462.0	0.0	0.64929	1.22461	
1463.0	0.0	0.64673	1.24329	
1464.0	0.0	0.64545	1.24658	
1465.0	0.0	0.6449	1.26636	
1466.0	0.0	0.6449	1.27917	
1467.0	0.0	0.64526	1.29456	
1468.0	0.0	0.64636	1.30408	
1469.0	0.0	0.64709	1.31689	
1470.0	0.0	0.646	1.3266	
1471.0	0.0	0.64233	1.33997	
1472.0	0.0	0.63501	1.34509	
1473.0	0.0	0.62402	1.35095	
1474.0	0.0	0.60901	1.35498	
1475.0	0.0	0.59106	1.36176	
1476.0	0.0	0.57092	1.3504	
1477.0	0.0	0.54858	1.35352	
1478.0	0.0	0.52515	1.36047	
1479.0	0.0	0.50098	1.35864	
1480.0	0.0	0.47388	1.36258	
1481.0	0.0	0.44495	1.35956	
1482.0	0.0	0.4151	1.3559	
1483.0	0.0	0.38416	1.3515	
1484.0	0.0	0.35358	1.34473	
1485.0	0.0	0.323	1.3288	
1486.0	0.0	0.29553	1.30646	
1487.0	0.0	0.27191	1.28906	
1488.0	0.0	0.25159	1.27332	
1489.0	0.0	0.23602	1.26508	
1490.0	0.0	0.22467	1.26595	
1491.0	0.0	0.2168	1.26562	
1492.0	0.0	0.21185	1.26379	
1493.0	0.0	0.20874	1.26595	
1494.0	0.0	0.20837	1.26471	
1495.0	0.0	0.20874	1.26123	
1496.0	0.0	0.21057	1.25189	
1497.0	0.0	0.21259	1.2345	
1498.0	0.0	0.21533	1.22754	
1499.0	0.0	0.21881	1.21143	
1500.0	0.0	0.22192	1.19733	
1501.0	0.0	0.22266	1.18451	
1502.0	0.0	0.22559	1.16364	
1503.0	0.0	0.22778	1.15137	
1504.0	0.0	0.22925	1.12665	
1505.0	0.0	0.23016	1.10175	
1506.0	0.0	0.22961	1.07959	
1507.0	0.0	0.22778	1.04865	
1508.0	0.0	0.22485	1.01019	
1509.0	0.0	0.22284	0.96698	
1510.0	0.0	0.22028	0.91434	
1511.0	0.0	0.21826	0.87158	
1512.0	0.0	0.21735	0.81683	
1513.0	0.0	0.21753	0.77454	
1514.0	0.0	0.22046	0.72931	
1515.0	0.0	0.21954	0.69415	
1516.0	0.0	0.22559	0.66357	
1517.0	0.0	0.22632	0.63135	
1518.0	0.0	0.23364	0.61542	
1519.0	0.0	0.23584	0.58411	
1520.0	0.0	0.24646	0.57147	
1521.0	0.0	0.25049	0.54895	
1522.0	0.0	0.26294	0.54016	
1523.0	0.0	0.2677	0.51068	
1524.0	0.0	0.27905	0.50281	
1525.0	0.0	0.28345	0.48578	
1526.0	0.0	0.29462	0.46907	
1527.0	0.0	0.2981	0.46051	
1528.0	0.0	0.30927	0.45209	
1529.0	0.0	0.31311	0.44293	
1530.0	0.0	0.3241	0.42938	
1531.0	0.0	0.32941	0.42957	
1532.0	0.0	0.34241	0.42902	
1533.0	0.0	0.3501	0.42755	
1534.0	0.0	0.36475	0.42686	
1535.0	0.0	0.37262	0.42902	
1536.0	0.0	0.38782	0.42664	
1537.0	0.0	0.39587	0.42737	
1538.0	0.0	0.40979	0.42828	
1539.0	0.0	0.41748	0.41986	
1540.0	0.0	0.42993	0.42279	
1541.0	0.0	0.43469	0.41986	
1542.0	0.0	0.44678	0.42059	
1543.0	0.0	0.45081	0.41949	
1544.0	0.0	0.46069	0.42316	
1545.0	0.0	0.46436	0.40796	
1546.0	0.0	0.47406	0.41638	
1547.0	0.0	0.47662	0.40375	
1548.0	0.0	0.48633	0.40961	
1549.0	0.0	0.48926	0.41217	
1550.0	0.0	0.49933	0.41125	
1551.0	0.0	0.50171	0.41125	
1552.0	0.0	0.51013	0.41034	
1553.0	0.0	0.5094	0.41638	
1554.0	0.0	0.51526	0.42554	
1555.0	0.0	0.51288	0.42499	
1556.0	0.0	0.51709	0.43634	
1557.0	0.0	0.51416	0.43597	
1558.0	0.0	0.51965	0.43433	
1559.0	0.0	0.51782	0.43616	
1560.0	0.0	0.52368	0.4455	
1561.0	0.0	0.52295	0.4422	
1562.0	0.0	0.52917	0.4455	
1563.0	0.0	0.52844	0.43781	
1564.0	0.0	0.5354	0.44202	
1565.0	0.0	0.53577	0.42865	
1566.0	0.0	0.54456	0.42609	
1567.0	0.0	0.54382	0.42627	
1568.0	0.0	0.55115	0.42719	
1569.0	0.0	0.55133	0.42041	
1570.0	0.0	0.55811	0.42444	
1571.0	0.0	0.55957	0.41364	
1572.0	0.0	0.56836	0.4173	
1573.0	0.0	0.57019	0.40869	
1574.0	0.0	0.57642	0.40887	
1575.0	0.0	0.57422	0.40457	
1576.0	0.0	0.57971	0.40723	
1577.0	0.0	0.57751	0.40045	
1578.0	0.0	0.58374	0.40741	
1579.0	0.0	0.58301	0.40192	
1580.0	0.0	0.59033	0.40027	
1581.0	0.0	0.59106	0.39587	
1582.0	0.0	0.59839	0.39221	
1583.0	0.0	0.59912	0.38727	
1584.0	0.0	0.60754	0.39349	
1585.0	0.0	0.60828	0.39001	
1586.0	0.0	0.61523	0.39551	
1587.0	0.0	0.6156	0.39322	
1588.0	0.0	0.62219	0.3999	
1589.0	0.0	0.62219	0.39276	
1590.0	0.0	0.62988	0.39496	
1591.0	0.0	0.6286	0.39697	
1592.0	0.0	0.63464	0.401	
1593.0	0.0	0.63373	0.39038	
1594.0	0.0	0.63867	0.39276	
1595.0	0.0	0.63574	0.38818	
1596.0	0.0	0.6394	0.39185	
1597.0	0.0	0.63519	0.3869	
1598.0	0.0	0.63977	0.3902	
1599.0	0.0	0.63538	0.39404	
1600.0	0.0	0.6394	0.39496	
1601.0	0.0	0.63501	0.39404	
1602.0	0.0	0.63831	0.40613	
1603.0	0.0	0.63391	0.40027	
1604.0	0.0	0.63684	0.40704	
1605.0	0.0	0.63135	0.41162	
1606.0	0.0	0.63428	0.41254	
1607.0	0.0	0.62769	0.42078	
1608.0	0.0	0.62842	0.42828	
1609.0	0.0	0.62146	0.42297	
1610.0	0.0	0.62366	0.43652	
1611.0	0.0	0.61725	0.43652	
1612.0	0.0	0.61908	0.44403	
1613.0	0.0	0.6134	0.43945	
1614.0	0.0	0.61395	0.44824	
1615.0	0.0	0.60791	0.44055	
1616.0	0.0	0.60791	0.45282	
1617.0	0.0	0.60059	0.45319	
1618.0	0.0	0.60095	0.45685	
1619.0	0.0	0.5918	0.45612	
1620.0	0.0	0.59033	0.46362	
1621.0	0.0	0.58136	0.45776	
1622.0	0.0	0.58008	0.46857	
1623.0	0.0	0.57147	0.46527	
1624.0	0.0	0.56946	0.47937	
1625.0	0.0	0.56049	0.47369	
1626.0	0.0	0.55847	0.4812	
1627.0	0.0	0.54968	0.48907	
1628.0	0.0	0.54749	0.48944	
1629.0	0.0	0.53851	0.48926	
1630.0	0.0	0.53705	0.50226	
1631.0	0.0	0.52863	0.50061	
1632.0	0.0	0.52679	0.50098	
1633.0	0.0	0.51855	0.50409	
1634.0	0.0	0.51782	0.50995	
1635.0	0.0	0.50977	0.50372	
1636.0	0.0	0.50867	0.51819	
1637.0	0.0	0.49988	0.51746	
1638.0	0.0	0.49951	0.52222	
1639.0	0.0	0.49109	0.52002	
1640.0	0.0	0.48999	0.53302	
1641.0	0.0	0.4812	0.52405	
1642.0	0.0	0.48083	0.53485	
1643.0	0.0	0.47241	0.53558	
1644.0	0.0	0.47168	0.53906	
1645.0	0.0	0.46436	0.5332	
1646.0	0.0	0.46326	0.53027	
1647.0	0.0	0.45557	0.53741	
1648.0	0.0	0.45447	0.53925	
1649.0	0.0	0.44678	0.53394	
1650.0	0.0	0.44604	0.54016	
1651.0	0.0	0.43762	0.54401	
1652.0	0.0	0.43762	0.54456	
1653.0	0.0	0.42938	0.54858	
1654.0	0.0	0.4303	0.54254	
1655.0	0.0	0.42352	0.53943	
1656.0	0.0	0.42371	0.5506	
1657.0	0.0	0.41748	0.53778	
1658.0	0.0	0.41821	0.54437	
1659.0	0.0	0.41089	0.54309	
1660.0	0.0	0.41107	0.5473	
1661.0	0.0	0.4043	0.54089	
1662.0	0.0	0.40613	0.54803	
1663.0	0.0	0.401	0.54401	
1664.0	0.0	0.40393	0.5473	
1665.0	0.0	0.39771	0.54016	
1666.0	0.0	0.39844	0.53906	
1667.0	0.0	0.39001	0.53082	
1668.0	0.0	0.38965	0.54199	
1669.0	0.0	0.38232	0.53394	
1670.0	0.0	0.38269	0.5365	
1671.0	0.0	0.3772	0.52844	
1672.0	0.0	0.38049	0.53888	
1673.0	0.0	0.37683	0.53101	
1674.0	0.0	0.38086	0.53522	
1675.0	0.0	0.37756	0.54089	
1676.0	0.0	0.38269	0.54822	
1677.0	0.0	0.38013	0.54346	
1678.0	0.0	0.38489	0.55408	
1679.0	0.0	0.38123	0.54639	
1680.0	0.0	0.38672	0.5592	
1681.0	0.0	0.38379	0.55023	
1682.0	0.0	0.39038	0.56012	
1683.0	0.0	0.38818	0.5603	
1684.0	0.0	0.39478	0.55811	
1685.0	0.0	0.39368	0.55573	
1686.0	0.0	0.39972	0.5495	
1687.0	0.0	0.39844	0.5451	
1688.0	0.0	0.40411	0.54272	
1689.0	0.0	0.4021	0.5365	
1690.0	0.0	0.40741	0.52863	
1691.0	0.0	0.40466	0.52789	
1692.0	0.0	0.40979	0.52734	
1693.0	0.0	0.40594	0.52203	
1694.0	0.0	0.41016	0.52496	
1695.0	0.0	0.40576	0.51801	
1696.0	0.0	0.40942	0.51489	
1697.0	0.0	0.40521	0.50793	
1698.0	0.0	0.40723	0.50903	
1699.0	0.0	0.40137	0.50903	
1700.0	0.0	0.40411	0.50592	
1701.0	0.0	0.3988	0.50116	
1702.0	0.0	0.40247	0.50354	
1703.0	0.0	0.39807	0.50043	
1704.0	0.0	0.4021	0.49622	
1705.0	0.0	0.39734	0.49695	
1706.0	0.0	0.40009	0.48486	
1707.0	0.0	0.39441	0.48633	
1708.0	0.0	0.39624	0.48706	
1709.0	0.0	0.3891	0.4812	
1710.0	0.0	0.39001	0.46907	
1711.0	0.0	0.38196	0.44971	
1712.0	0.0	0.38232	0.43945	
1713.0	0.0	0.375	0.4184	
1714.0	0.0	0.3772	0.38782	
1715.0	0.0	0.3728	0.36475	
1716.0	0.0	0.37683	0.33618	
1717.0	0.0	0.37317	0.30093	
1718.0	0.0	0.37463	0.26624	
1719.0	0.0	0.36511	0.24609	
1720.0	0.0	0.36035	0.22394	
1721.0	0.0	0.3479	0.21121	
1722.0	0.0	0.34277	0.20599	
1723.0	0.0	0.33032	0.20178	
1724.0	0.0	0.3252	0.20764	
1725.0	0.0	0.31311	0.20874	
1726.0	0.0	0.30853	0.21533	
1727.0	0.0	0.2959	0.21625	
1728.0	0.0	0.29224	0.21844	
1729.0	0.0	0.2807	0.21661	
1730.0	0.0	0.27612	0.21423	
1731.0	0.0	0.26349	0.20892	
1732.0	0.0	0.25598	0.2049	
1733.0	0.0	0.23914	0.19556	
1734.0	0.0	0.22577	0.19299	
1735.0	0.0	0.20068	0.16992	
1736.0	0.0	0.17908	0.16956	
1737.0	0.0	0.1474	0.1485	
1738.0	0.0	0.11902	0.13202	
1739.0	0.0	0.0835	0.12927	
1740.0	0.0	0.0542	0.11389	
1741.0	0.0	0.02051	0.11664	
1742.0	0.0	-0.00311	0.11609	
1743.0	0.0	-0.02856	0.12918	
1744.0	0.0	-0.04175	0.14612	
1745.0	0.0	-0.05566	0.16438	
1746.0	0.0	-0.05566	0.18311	
1747.0	0.0	-0.05786	0.22485	
1748.0	0.0	-0.04797	0.27393	
1749.0	0.0	-0.0444	0.32739	
1750.0	0.0	-0.03625	0.38818	
1751.0	0.0	-0.04047	0.46088	
1752.0	0.0	-0.04065	0.52661	
1753.0	0.0	-0.0498	0.5733	
1754.0	0.0	-0.05035	0.63428	
1755.0	0.0	-0.0575	0.66577	
1756.0	0.0	-0.05713	0.69525	
1757.0	0.0	-0.065	0.71063	
1758.0	0.0	-0.0661	0.7218	
1759.0	0.0	-0.07581	0.7229	
1760.0	0.0	-0.07709	0.72688	
1761.0	0.0	-0.08588	0.72217	
1762.0	0.0	-0.08386	0.72308	
1763.0	0.0	-0.08862	0.71136	
1764.0	0.0	-0.08423	0.70184	
1765.0	0.0	-0.08643	0.6828	
1766.0	0.0	-0.07874	0.67932	
1767.0	0.0	-0.08057	0.65735	
1768.0	0.0	-0.07507	0.64783	
1769.0	0.0	-0.07819	0.63153	
1770.0	0.0	-0.07471	0.62988	
1771.0	0.0	-0.0802	0.61285	
1772.0	0.0	-0.07745	0.60315	
1773.0	0.0	-0.08313	0.59601	
1774.0	0.0	-0.08112	0.58319	
1775.0	0.0	-0.08826	0.58008	
1776.0	0.0	-0.08734	0.57166	
1777.0	0.0	-0.09521	0.55261	
1778.0	0.0	-0.0965	0.54053	
1779.0	0.0	-0.1073	0.5083	
1780.0	0.0	-0.11169	0.4801	
1781.0	0.0	-0.12579	0.42737	
1782.0	0.0	-0.1333	0.3848	
1783.0	0.0	-0.1485	0.33133	
1784.0	0.0	-0.15729	0.27301	
1785.0	0.0	-0.17468	0.21222	
1786.0	0.0	-0.18567	0.14648	
1787.0	0.0	-0.20563	0.1019	
1788.0	0.0	-0.21826	0.04138	
1789.0	0.0	-0.23969	-0.01044	
1790.0	0.0	-0.25415	-0.06372	
1791.0	0.0	-0.27649	-0.1051	
1792.0	0.0	-0.29004	-0.14539	
1793.0	0.0	-0.31018	-0.19876	
1794.0	0.0	-0.32135	-0.23328	
1795.0	0.0	-0.3382	-0.27805	
1796.0	0.0	-0.34625	-0.32831	
1797.0	0.0	-0.36127	-0.37408	
1798.0	0.0	-0.36786	-0.40897	
1799.0	0.0	-0.38123	-0.44916	
1800.0	0.0	-0.38617	-0.48578	
1801.0	0.0	-0.39734	-0.52386	
1802.0	0.0	-0.3999	-0.54913	
1803.0	0.0	-0.40869	-0.57971	
1804.0	0.0	-0.40961	-0.60068	
1805.0	0.0	-0.41766	-0.62375	
1806.0	0.0	-0.41821	-0.63528	
1807.0	0.0	-0.42618	-0.65305	
1808.0	0.0	-0.42627	-0.66476	
1809.0	0.0	-0.43341	-0.685	
1810.0	0.0	-0.43314	-0.69489	
1811.0	0.0	-0.43982	-0.71429	
1812.0	0.0	-0.43945	-0.72583	
1813.0	0.0	-0.44641	-0.74268	
1814.0	0.0	-0.44751	-0.75394	
1815.0	0.0	-0.45694	-0.76758	
1816.0	0.0	-0.46033	-0.76987	
1817.0	0.0	-0.47104	-0.78387	
1818.0	0.0	-0.47424	-0.78516	
1819.0	0.0	-0.48505	-0.78772	
1820.0	0.0	-0.48816	-0.79688	
1821.0	0.0	-0.49823	-0.8031	
1822.0	0.0	-0.50171	-0.79669	
1823.0	0.0	-0.51215	-0.79852	
1824.0	0.0	-0.51453	-0.79248	
1825.0	0.0	-0.52405	-0.79642	
1826.0	0.0	-0.52533	-0.78223	
1827.0	0.0	-0.53394	-0.78186	
1828.0	0.0	-0.53348	-0.76868	
1829.0	0.0	-0.54053	-0.75833	
1830.0	0.0	-0.53833	-0.73819	
1831.0	0.0	-0.54401	-0.72583	
1832.0	0.0	-0.54108	-0.70285	
1833.0	0.0	-0.54529	-0.68097	
1834.0	0.0	-0.54089	-0.64893	
1835.0	0.0	-0.54456	-0.62027	
1836.0	0.0	-0.54195	-0.58392	
1837.0	0.0	-0.54639	-0.56561	
1838.0	0.0	-0.54327	-0.55188	
1839.0	0.0	-0.54822	-0.53851	
1840.0	0.0	-0.54492	-0.53595	
1841.0	0.0	-0.54858	-0.53275	
1842.0	0.0	-0.54419	-0.53027	
1843.0	0.0	-0.54822	-0.53156	
1844.0	0.0	-0.54327	-0.53192	
1845.0	0.0	-0.54584	-0.54227	
1846.0	0.0	-0.53925	-0.53503	
1847.0	0.0	-0.53979	-0.5408	
1848.0	0.0	-0.53046	-0.52148	
1849.0	0.0	-0.52789	-0.51947	
1850.0	0.0	-0.5159	-0.50812	
1851.0	0.0	-0.50995	-0.50629	
1852.0	0.0	-0.49329	-0.50537	
1853.0	0.0	-0.48413	-0.50574	
1854.0	0.0	-0.46802	-0.51599	
1855.0	0.0	-0.46243	-0.54346	
1856.0	0.0	-0.45026	-0.5668	
1857.0	0.0	-0.44769	-0.59436	
1858.0	0.0	-0.43781	-0.61697	
1859.0	0.0	-0.43579	-0.63748	
1860.0	0.0	-0.42444	-0.64426	
1861.0	0.0	-0.41895	-0.65863	
1862.0	0.0	-0.40411	-0.65955	
1863.0	0.0	-0.39441	-0.67667	
1864.0	0.0	-0.37573	-0.68646	
1865.0	0.0	-0.36365	-0.7066	
1866.0	0.0	-0.34254	-0.71082	
1867.0	0.0	-0.32977	-0.73297	
1868.0	0.0	-0.30908	-0.73563	
1869.0	0.0	-0.29883	-0.74611	
1870.0	0.0	-0.28125	-0.75705	
1871.0	0.0	-0.27264	-0.76538	
1872.0	0.0	-0.25671	-0.7771	
1873.0	0.0	-0.25049	-0.79431	
1874.0	0.0	-0.23639	-0.79445	
1875.0	0.0	-0.22943	-0.81812	
1876.0	0.0	-0.21277	-0.82764	
1877.0	0.0	-0.20178	-0.83954	
1878.0	0.0	-0.18365	-0.84279	
1879.0	0.0	-0.1734	-0.84462	
1880.0	0.0	-0.15491	-0.84961	
1881.0	0.0	-0.14374	-0.85455	
1882.0	0.0	-0.12561	-0.85602	
1883.0	0.0	-0.11554	-0.86371	
1884.0	0.0	-0.09888	-0.86948	
1885.0	0.0	-0.09082	-0.87524	
1886.0	0.0	-0.07709	-0.87012	
1887.0	0.0	-0.07141	-0.87808	
1888.0	0.0	-0.05878	-0.87653	
1889.0	0.0	-0.05402	-0.87424	
1890.0	0.0	-0.04175	-0.86719	
1891.0	0.0	-0.0379	-0.86288	
1892.0	0.0	-0.02618	-0.85446	
1893.0	0.0	-0.02271	-0.84869	
1894.0	0.0	-0.01208	-0.84027	
1895.0	0.0	-0.00916	-0.83276	
1896.0	0.0	0.0022	-0.8161	
1897.0	0.0	0.00476	-0.80493	
1898.0	0.0	0.01584	-0.79276	
1899.0	0.0	0.01978	-0.78937	
1900.0	0.0	0.03369	-0.77362	
1901.0	0.0	0.03992	-0.77499	
1902.0	0.0	0.05457	-0.76373	
1903.0	0.0	0.05933	-0.7489	
1904.0	0.0	0.07141	-0.73398	
1905.0	0.0	0.07434	-0.73068	
1906.0	0.0	0.08588	-0.71338	
1907.0	0.0	0.08826	-0.7132	
1908.0	0.0	0.09998	-0.69946	
1909.0	0.0	0.10492	-0.69781	
1910.0	0.0	0.11682	-0.6888	
1911.0	0.0	0.12012	-0.68298	
1912.0	0.0	0.13	-0.66815	
1913.0	0.0	0.13037	-0.6601	
1914.0	0.0	0.13898	-0.65021	
1915.0	0.0	0.13934	-0.64673	
1916.0	0.0	0.14795	-0.63794	
1917.0	0.0	0.14896	-0.63387	
1918.0	0.0	0.15784	-0.61807	
1919.0	0.0	0.1571	-0.61469	
1920.0	0.0	0.16534	-0.60333	
1921.0	0.0	0.16589	-0.60315	
1922.0	0.0	0.17377	-0.59024	
1923.0	0.0	0.17395	-0.58118	
1924.0	0.0	0.18054	-0.56927	
1925.0	0.0	0.17871	-0.56891	
1926.0	0.0	0.18457	-0.55865	
1927.0	0.0	0.18073	-0.55426	
1928.0	0.0	0.18604	-0.53943	
1929.0	0.0	0.18311	-0.52588	
1930.0	0.0	0.1908	-0.51205	
1931.0	0.0	0.19043	-0.50684	
1932.0	0.0	0.19904	-0.4975	
1933.0	0.0	0.19995	-0.50331	
1934.0	0.0	0.20892	-0.48848	
1935.0	0.0	0.20892	-0.48431	
1936.0	0.0	0.2168	-0.48175	
1937.0	0.0	0.21533	-0.46765	
1938.0	0.0	0.22211	-0.46271	
1939.0	0.0	0.21954	-0.45154	
1940.0	0.0	0.22522	-0.43433	
1941.0	0.0	0.22137	-0.44128	
1942.0	0.0	0.22632	-0.42719	
1943.0	0.0	0.22266	-0.41684	
1944.0	0.0	0.22668	-0.41309	
1945.0	0.0	0.22266	-0.41089	
1946.0	0.0	0.22687	-0.3988	
1947.0	0.0	0.22192	-0.39844	
1948.0	0.0	0.22614	-0.39093	
1949.0	0.0	0.22266	-0.38782	
1950.0	0.0	0.22705	-0.388	
1951.0	0.0	0.22339	-0.3783	
1952.0	0.0	0.22852	-0.36932	
1953.0	0.0	0.22485	-0.36877	
1954.0	0.0	0.23035	-0.36749	
1955.0	0.0	0.22723	-0.35413	
1956.0	0.0	0.23364	-0.35138	
1957.0	0.0	0.23218	-0.34222	
1958.0	0.0	0.23914	-0.33545	
1959.0	0.0	0.23914	-0.33344	
1960.0	0.0	0.24664	-0.33252	
1961.0	0.0	0.24573	-0.32423	
1962.0	0.0	0.25305	-0.31989	
1963.0	0.0	0.25122	-0.31723	
1964.0	0.0	0.25781	-0.30798	
1965.0	0.0	0.25525	-0.30304	
1966.0	0.0	0.26111	-0.29095	
1967.0	0.0	0.25745	-0.28674	
1968.0	0.0	0.26294	-0.27997	
1969.0	0.0	0.26019	-0.26532	
1970.0	0.0	0.26404	-0.25031	
1971.0	0.0	0.26129	-0.24518	
1972.0	0.0	0.26605	-0.24353	
1973.0	0.0	0.26276	-0.23236	
1974.0	0.0	0.26788	-0.22888	
1975.0	0.0	0.26422	-0.22559	
1976.0	0.0	0.26898	-0.20425	
1977.0	0.0	0.26514	-0.20911	
1978.0	0.0	0.2688	-0.18604	
1979.0	0.0	0.2644	-0.19373	
1980.0	0.0	0.26807	-0.18109	
1981.0	0.0	0.26294	-0.17825	
1982.0	0.0	0.26587	-0.17047	
1983.0	0.0	0.26001	-0.16809	
1984.0	0.0	0.26276	-0.15894	
1985.0	0.0	0.25635	-0.15088	
1986.0	0.0	0.25854	-0.14923	
1987.0	0.0	0.25159	-0.14035	
1988.0	0.0	0.25305	-0.13568	
1989.0	0.0	0.24683	-0.1344	
1990.0	0.0	0.24902	-0.12634	
1991.0	0.0	0.24261	-0.12195	
1992.0	0.0	0.245	-0.11426	
1993.0	0.0	0.23914	-0.11371	
1994.0	0.0	0.24152	-0.10345	
1995.0	0.0	0.23566	-0.10236	
1996.0	0.0	0.23676	-0.09924	
1997.0	0.0	0.22943	-0.09723	
1998.0	0.0	0.23071	-0.08789	
1999.0	0.0	0.22321	-0.08881	
2000.0	0.0	0.22595	-0.08203	
2001.0	0.0	0.22137	-0.08057	
2002.0	0.0	0.22595	-0.07233	
2003.0	0.0	0.22046	-0.07178	
2004.0	0.0	0.22302	-0.06573	
2005.0	0.0	0.21606	-0.06335	
2006.0	0.0	0.21753	-0.05511	
2007.0	0.0	0.21075	-0.0542	
2008.0	0.0	0.21405	-0.04688	
2009.0	0.0	0.21094	-0.04413	
2010.0	0.0	0.21716	-0.039	
2011.0	0.0	0.21625	-0.03754	
2012.0	0.0	0.22412	-0.02829	
2013.0	0.0	0.22375	-0.02618	
2014.0	0.0	0.23145	-0.01978	
2015.0	0.0	0.22998	-0.01703	
2016.0	0.0	0.2373	-0.00769	
2017.0	0.0	0.23511	-0.00403	
2018.0	0.0	0.24207	0.00146	
2019.0	0.0	0.24023	0.00558	
2020.0	0.0	0.24866	0.01685	
2021.0	0.0	0.24792	0.01685	
2022.0	0.0	0.2558	0.02197	
2023.0	0.0	0.25562	0.02252	
2024.0	0.0	0.26331	0.03113	
2025.0	0.0	0.26257	0.02783	
2026.0	0.0	0.26971	0.03406	
2027.0	0.0	0.2688	0.03937	
2028.0	0.0	0.27539	0.04706	
2029.0	0.0	0.27319	0.04669	
2030.0	0.0	0.27869	0.05621	
2031.0	0.0	0.27686	0.05896	
2032.0	0.0	0.28217	0.06592	
2033.0	0.0	0.28052	0.06592	
2034.0	0.0	0.28711	0.07251	
2035.0	0.0	0.28546	0.07214	
2036.0	0.0	0.2926	0.07416	
2037.0	0.0	0.29077	0.07123	
2038.0	0.0	0.29773	0.07892	
2039.0	0.0	0.29736	0.0769	
2040.0	0.0	0.30505	0.08093	
2041.0	0.0	0.3045	0.07928	
2042.0	0.0	0.31238	0.08084	
2043.0	0.0	0.31165	0.0791	
2044.0	0.0	0.31824	0.08405	
2045.0	0.0	0.31677	0.08588	
2046.0	0.0	0.323	0.08817	
2047.0	0.0	0.32007	0.091	
2048.0	0.0	0.3252	0.09741	
2049.0	0.0	0.32281	0.09814	
2050.0	0.0	0.32703	0.10181	
2051.0	0.0	0.32336	0.10803	
2052.0	0.0	0.32776	0.11481	
2053.0	0.0	0.32465	0.10895	
2054.0	0.0	0.32959	0.12067	
2055.0	0.0	0.32593	0.11554	
2056.0	0.0	0.33105	0.12488	
2057.0	0.0	0.32739	0.12872	
2058.0	0.0	0.33142	0.12918	
2059.0	0.0	0.32776	0.13293	
2060.0	0.0	0.33197	0.13934	
2061.0	0.0	0.32758	0.13843	
2062.0	0.0	0.33179	0.13806	
2063.0	0.0	0.32666	0.14447	
2064.0	0.0	0.32996	0.1441	
2065.0	0.0	0.32483	0.14758	
2066.0	0.0	0.32776	0.15198	
2067.0	0.0	0.32208	0.15106	
2068.0	0.0	0.32373	0.15198	
2069.0	0.0	0.31787	0.15271	
2070.0	0.0	0.32007	0.15967	
2071.0	0.0	0.31348	0.15088	
2072.0	0.0	0.31512	0.16187	
2073.0	0.0	0.30908	0.16132	
2074.0	0.0	0.31201	0.1615	
2075.0	0.0	0.30615	0.16187	
2076.0	0.0	0.30725	0.16351	
2077.0	0.0	0.30029	0.16718	
2078.0	0.0	0.30103	0.16681	
2079.0	0.0	0.29462	0.16315	
2080.0	0.0	0.29736	0.17789	
2081.0	0.0	0.29187	0.16718	
2082.0	0.0	0.2959	0.1723	
2083.0	0.0	0.29041	0.17139	
2084.0	0.0	0.29187	0.18219	
2085.0	0.0	0.28418	0.18201	
2086.0	0.0	0.28455	0.18329	
2087.0	0.0	0.27686	0.17926	
2088.0	0.0	0.27832	0.1886	
2089.0	0.0	0.27319	0.1886	
2090.0	0.0	0.27704	0.19043	
2091.0	0.0	0.27319	0.19336	
2092.0	0.0	0.27722	0.19244	
2093.0	0.0	0.27338	0.19592	
2094.0	0.0	0.27722	0.19299	
2095.0	0.0	0.27319	0.19043	
2096.0	0.0	0.27649	0.20663	
2097.0	0.0	0.27173	0.20215	
2098.0	0.0	0.27502	0.20654	
2099.0	0.0	0.27045	0.20453	
2100.0	0.0	0.27429	0.21313	
2101.0	0.0	0.27081	0.22174	
2102.0	0.0	0.27539	0.22357	
2103.0	0.0	0.271	0.22485	
2104.0	0.0	0.27649	0.22247	
2105.0	0.0	0.27246	0.22559	
2106.0	0.0	0.27576	0.21899	
2107.0	0.0	0.27173	0.21735	
2108.0	0.0	0.27631	0.22229	
2109.0	0.0	0.27136	0.22156	
2110.0	0.0	0.27466	0.2265	
2111.0	0.0	0.26898	0.23291	
2112.0	0.0	0.27246	0.2298	
2113.0	0.0	0.26733	0.2276	
2114.0	0.0	0.27063	0.23694	
2115.0	0.0	0.26624	0.23987	
2116.0	0.0	0.26971	0.24445	
2117.0	0.0	0.26495	0.23199	
2118.0	0.0	0.26843	0.24536	
2119.0	0.0	0.26459	0.23181	
2120.0	0.0	0.26917	0.23969	
2121.0	0.0	0.26587	0.23996	
2122.0	0.0	0.27026	0.2395	
2123.0	0.0	0.2655	0.22742	
2124.0	0.0	0.26971	0.2309	
2125.0	0.0	0.2644	0.22815	
2126.0	0.0	0.26733	0.2439	
2127.0	0.0	0.26221	0.23914	
2128.0	0.0	0.2644	0.23584	
2129.0	0.0	0.258	0.23987	
2130.0	0.0	0.25964	0.23657	
2131.0	0.0	0.25269	0.23621	
2132.0	0.0	0.25452	0.25159	
2133.0	0.0	0.24701	0.24554	
2134.0	0.0	0.24939	0.25049	
2135.0	0.0	0.24243	0.24811	
2136.0	0.0	0.24463	0.25227	
2137.0	0.0	0.2384	0.25562	
2138.0	0.0	0.24078	0.25452	
2139.0	0.0	0.23438	0.25708	
2140.0	0.0	0.23639	0.24994	
2141.0	0.0	0.2298	0.24683	
2142.0	0.0	0.23145	0.25909	
2143.0	0.0	0.22412	0.25909	
2144.0	0.0	0.22595	0.26395	
2145.0	0.0	0.21936	0.25671	
2146.0	0.0	0.22046	0.2655	
2147.0	0.0	0.2135	0.25836	
2148.0	0.0	0.2146	0.26111	
2149.0	0.0	0.20691	0.26175	
2150.0	0.0	0.20801	0.2666	
2151.0	0.0	0.19995	0.25433	
2152.0	0.0	0.20068	0.26147	
2153.0	0.0	0.19299	0.26422	
2154.0	0.0	0.19354	0.26811	
2155.0	0.0	0.18604	0.26422	
2156.0	0.0	0.18677	0.27045	
2157.0	0.0	0.17963	0.25415	
2158.0	0.0	0.18091	0.26935	
2159.0	0.0	0.17377	0.25323	
2160.0	0.0	0.17358	0.25598	
2161.0	0.0	0.16516	0.2536	
2162.0	0.0	0.16589	0.26495	
2163.0	0.0	0.16003	0.26019	
2164.0	0.0	0.16187	0.25635	
2165.0	0.0	0.15802	0.26569	
2166.0	0.0	0.16003	0.25598	
2167.0	0.0	0.15381	0.25891	
2168.0	0.0	0.15546	0.25507	
2169.0	0.0	0.1474	0.26459	
2170.0	0.0	0.14777	0.25813	
2171.0	0.0	0.14081	0.25909	
2172.0	0.0	0.14319	0.25873	
2173.0	0.0	0.13843	0.2644	
2174.0	0.0	0.14246	0.26788	
2175.0	0.0	0.13879	0.26422	
2176.0	0.0	0.14392	0.26422	
2177.0	0.0	0.14099	0.26605	
2178.0	0.0	0.14685	0.27319	
2179.0	0.0	0.14484	0.27356	
2180.0	0.0	0.15088	0.28125	
2181.0	0.0	0.14832	0.27136	
2182.0	0.0	0.15454	0.28528	
2183.0	0.0	0.15253	0.28436	
2184.0	0.0	0.15894	0.29169	
2185.0	0.0	0.15747	0.28931	
2186.0	0.0	0.16406	0.29443	
2187.0	0.0	0.1626	0.28821	
2188.0	0.0	0.16901	0.29077	
2189.0	0.0	0.16736	0.28784	
2190.0	0.0	0.17285	0.28583	
2191.0	0.0	0.17084	0.28271	
2192.0	0.0	0.17688	0.29498	
2193.0	0.0	0.17322	0.29004	
2194.0	0.0	0.17725	0.2948	
2195.0	0.0	0.17413	0.2981	
2196.0	0.0	0.17889	0.28766	
2197.0	0.0	0.17413	0.29865	
2198.0	0.0	0.17853	0.30121	
2199.0	0.0	0.17322	0.28601	
2200.0	0.0	0.1778	0.30084	
2201.0	0.0	0.17285	0.29865	
2202.0	0.0	0.17688	0.29828	
2203.0	0.0	0.17285	0.2937	
2204.0	0.0	0.17725	0.29388	
2205.0	0.0	0.17285	0.29315	
2206.0	0.0	0.17578	0.28967	
2207.0	0.0	0.17029	0.29004	
2208.0	0.0	0.1734	0.2937	
2209.0	0.0	0.16626	0.28473	
2210.0	0.0	0.16736	0.28638	
2211.0	0.0	0.16003	0.2937	
2212.0	0.0	0.16077	0.29022	
2213.0	0.0	0.15179	0.28784	
2214.0	0.0	0.15179	0.29718	
2215.0	0.0	0.14319	0.29132	
2216.0	0.0	0.14282	0.29297	
2217.0	0.0	0.13495	0.29297	
2218.0	0.0	0.13513	0.2991	
2219.0	0.0	0.12762	0.29608	
2220.0	0.0	0.12872	0.30011	
2221.0	0.0	0.1214	0.29645	
2222.0	0.0	0.12305	0.30853	
2223.0	0.0	0.11572	0.30643	
2224.0	0.0	0.11719	0.30501	
2225.0	0.0	0.11096	0.30945	
2226.0	0.0	0.11243	0.31348	
2227.0	0.0	0.10602	0.30835	
2228.0	0.0	0.10748	0.31348	
2229.0	0.0	0.10107	0.31165	
2230.0	0.0	0.10291	0.31787	
2231.0	0.0	0.09686	0.3078	
2232.0	0.0	0.09924	0.31732	
2233.0	0.0	0.09338	0.30286	
2234.0	0.0	0.09576	0.31329	
2235.0	0.0	0.0899	0.31329	
2236.0	0.0	0.09192	0.31659	
2237.0	0.0	0.08569	0.31421	
2238.0	0.0	0.08752	0.31952	
2239.0	0.0	0.08148	0.32574	
2240.0	0.0	0.08313	0.33124	
2241.0	0.0	0.07672	0.32721	
2242.0	0.0	0.0791	0.32492	
2243.0	0.0	0.07269	0.32465	
2244.0	0.0	0.07507	0.32739	
2245.0	0.0	0.06958	0.32904	
2246.0	0.0	0.07196	0.32739	
2247.0	0.0	0.06738	0.32552	
2248.0	0.0	0.06885	0.32666	
2249.0	0.0	0.06262	0.33453	
2250.0	0.0	0.06409	0.32172	
2251.0	0.0	0.05878	0.32812	
2252.0	0.0	0.06244	0.33051	
2253.0	0.0	0.05823	0.33508	
2254.0	0.0	0.06189	0.33087	
2255.0	0.0	0.05713	0.31769	
2256.0	0.0	0.06006	0.32007	
2257.0	0.0	0.0531	0.32904	
2258.0	0.0	0.0542	0.3252	
2259.0	0.0	0.04871	0.32556	
2260.0	0.0	0.05255	0.33307	
2261.0	0.0	0.04889	0.32758	
2262.0	0.0	0.05383	0.34149	
2263.0	0.0	0.052	0.33325	
2264.0	0.0	0.05841	0.32684	
2265.0	0.0	0.0575	0.3327	
2266.0	0.0	0.06409	0.3371	
2267.0	0.0	0.06299	0.33691	
2268.0	0.0	0.07031	0.34552	
2269.0	0.0	0.06921	0.34241	
2270.0	0.0	0.07617	0.35266	
2271.0	0.0	0.07581	0.35706	
2272.0	0.0	0.08313	0.36017	
2273.0	0.0	0.0824	0.35907	
2274.0	0.0	0.08954	0.35815	
2275.0	0.0	0.08899	0.34937	
2276.0	0.0	0.09531	0.34442	
2277.0	0.0	0.09467	0.34955	
2278.0	0.0	0.10144	0.3512	
2279.0	0.0	0.09924	0.35458	
2280.0	0.0	0.10657	0.35083	
2281.0	0.0	0.10492	0.35284	
2282.0	0.0	0.11023	0.34332	
2283.0	0.0	0.10675	0.35248	
2284.0	0.0	0.11133	0.35358	
2285.0	0.0	0.1084	0.35431	
2286.0	0.0	0.11353	0.35303	
2287.0	0.0	0.10986	0.35596	
2288.0	0.0	0.11353	0.35065	
2289.0	0.0	0.10986	0.34891	
2290.0	0.0	0.11481	0.35028	
2291.0	0.0	0.11169	0.3382	
2292.0	0.0	0.11719	0.35449	
2293.0	0.0	0.11426	0.3468	
2294.0	0.0	0.11902	0.34424	
2295.0	0.0	0.11499	0.34167	
2296.0	0.0	0.11865	0.34955	
2297.0	0.0	0.11426	0.33691	
2298.0	0.0	0.11682	0.3327	
2299.0	0.0	0.11133	0.34314	
2300.0	0.0	0.11279	0.34625	
2301.0	0.0	0.10547	0.32593	
2302.0	0.0	0.10583	0.34479	
2303.0	0.0	0.09705	0.33051	
2304.0	0.0	0.09631	0.34012	
2305.0	0.0	0.08679	0.34003	
2306.0	0.0	0.08606	0.34094	
2307.0	0.0	0.07654	0.33032	
2308.0	0.0	0.07526	0.34552	
2309.0	0.0	0.06647	0.33765	
2310.0	0.0	0.06519	0.33765	
2311.0	0.0	0.05566	0.3457	
2312.0	0.0	0.05457	0.34351	
2313.0	0.0	0.04395	0.35046	
2314.0	0.0	0.0423	0.34314	
2315.0	0.0	0.03241	0.3468	
2316.0	0.0	0.03003	0.34351	
2317.0	0.0	0.01978	0.35376	
2318.0	0.0	0.01758	0.35477	
2319.0	0.0	0.00659	0.3457	
2320.0	0.0	0.00385	0.35889	
2321.0	0.0	-0.00787	0.35046	
2322.0	0.0	-0.01135	0.3609	
2323.0	0.0	-0.02344	0.34369	
2324.0	0.0	-0.02673	0.35504	
2325.0	0.0	-0.03845	0.3512	
2326.0	0.0	-0.04102	0.35724	
2327.0	0.0	-0.052	0.36053	
2328.0	0.0	-0.05457	0.36328	
2329.0	0.0	-0.06519	0.3728	
2330.0	0.0	-0.06812	0.38123	
2331.0	0.0	-0.07855	0.38361	
2332.0	0.0	-0.08057	0.37317	
2333.0	0.0	-0.09119	0.39331	
2334.0	0.0	-0.09357	0.39185	
2335.0	0.0	-0.10309	0.39478	
2336.0	0.0	-0.104	0.41693	
2337.0	0.0	-0.11353	0.42096	
2338.0	0.0	-0.11462	0.42773	
2339.0	0.0	-0.12451	0.4325	
2340.0	0.0	-0.12653	0.43066	
2341.0	0.0	-0.13586	0.44897	
2342.0	0.0	-0.13641	0.44843	
2343.0	0.0	-0.14465	0.45593	
2344.0	0.0	-0.14319	0.47388	
2345.0	0.0	-0.15051	0.4856	
2346.0	0.0	-0.15143	0.50006	
2347.0	0.0	-0.15985	0.50537	
2348.0	0.0	-0.16187	0.5191	
2349.0	0.0	-0.17047	0.5235	
2350.0	0.0	-0.16992	0.53284	
2351.0	0.0	-0.17578	0.53503	
2352.0	0.0	-0.1734	0.54932	
2353.0	0.0	-0.17651	0.55902	
2354.0	0.0	-0.17102	0.57275	
2355.0	0.0	-0.17322	0.5799	
2356.0	0.0	-0.16699	0.59656	
2357.0	0.0	-0.16919	0.60223	
2358.0	0.0	-0.16333	0.61963	
2359.0	0.0	-0.16534	0.62622	
2360.0	0.0	-0.16003	0.64746	
2361.0	0.0	-0.16296	0.646	
2362.0	0.0	-0.15729	0.6687	
2363.0	0.0	-0.1593	0.67126	
2364.0	0.0	-0.15326	0.67291	
2365.0	0.0	-0.15527	0.69086	
2366.0	0.0	-0.14905	0.69708	
2367.0	0.0	-0.15051	0.70093	
2368.0	0.0	-0.14484	0.7132	
2369.0	0.0	-0.14758	0.7077	
2370.0	0.0	-0.14246	0.72437	
2371.0	0.0	-0.14392	0.7218	
2372.0	0.0	-0.13843	0.72949	
2373.0	0.0	-0.14209	0.73663	
2374.0	0.0	-0.13806	0.7489	
2375.0	0.0	-0.14282	0.74744	
2376.0	0.0	-0.13916	0.74689	
2377.0	0.0	-0.14392	0.75732	
2378.0	0.0	-0.14044	0.76428	
2379.0	0.0	-0.1463	0.75568	
2380.0	0.0	-0.14392	0.76538	
2381.0	0.0	-0.14978	0.76318	
2382.0	0.0	-0.14777	0.76648	
2383.0	0.0	-0.15381	0.75952	
2384.0	0.0	-0.15253	0.75677	
2385.0	0.0	-0.16095	0.75	
2386.0	0.0	-0.1615	0.74744	
2387.0	0.0	-0.17157	0.74377	
2388.0	0.0	-0.17395	0.73315	
2389.0	0.0	-0.18494	0.7251	
2390.0	0.0	-0.1886	0.72308	
2391.0	0.0	-0.20032	0.71228	
2392.0	0.0	-0.20416	0.70276	
2393.0	0.0	-0.21478	0.69173	
2394.0	0.0	-0.21826	0.6795	
2395.0	0.0	-0.22906	0.67987	
2396.0	0.0	-0.23126	0.67145	
2397.0	0.0	-0.24133	0.66742	
2398.0	0.0	-0.24298	0.6665	
2399.0	0.0	-0.25378	0.66083	
2400.0	0.0	-0.25635	0.65479	
2401.0	0.0	-0.2666	0.65021	
2402.0	0.0	-0.2688	0.64673	
2403.0	0.0	-0.27869	0.64948	
2404.0	0.0	-0.28162	0.6438	
2405.0	0.0	-0.29114	0.63684	
2406.0	0.0	-0.2937	0.6394	
2407.0	0.0	-0.30359	0.62384	
2408.0	0.0	-0.30615	0.6319	
2409.0	0.0	-0.31604	0.62265	
2410.0	0.0	-0.31824	0.62018	
2411.0	0.0	-0.32886	0.61688	
2412.0	0.0	-0.3316	0.60919	
2413.0	0.0	-0.34149	0.60278	
2414.0	0.0	-0.34387	0.60297	
2415.0	0.0	-0.35321	0.59692	
2416.0	0.0	-0.35486	0.60205	
2417.0	0.0	-0.36328	0.59619	
2418.0	0.0	-0.3642	0.59399	
2419.0	0.0	-0.37244	0.5885	
2420.0	0.0	-0.37335	0.58667	
2421.0	0.0	-0.38141	0.57935	
2422.0	0.0	-0.38196	0.58813	
2423.0	0.0	-0.39038	0.57788	
2424.0	0.0	-0.39056	0.58026	
2425.0	0.0	-0.39752	0.57275	
2426.0	0.0	-0.39697	0.57623	
2427.0	0.0	-0.4032	0.57019	
2428.0	0.0	-0.40118	0.56854	
2429.0	0.0	-0.40649	0.57019	
2430.0	0.0	-0.40356	0.57257	
2431.0	0.0	-0.40851	0.5625	
2432.0	0.0	-0.40668	0.57587	
2433.0	0.0	-0.41162	0.56982	
2434.0	0.0	-0.40851	0.57678	
2435.0	0.0	-0.41217	0.57678	
2436.0	0.0	-0.40814	0.58301	
2437.0	0.0	-0.41125	0.58136	
2438.0	0.0	-0.40723	0.58447	
2439.0	0.0	-0.4118	0.58209	
2440.0	0.0	-0.40869	0.58887	
2441.0	0.0	-0.41254	0.58997	
2442.0	0.0	-0.40851	0.59418	
2443.0	0.0	-0.41034	0.59711	
2444.0	0.0	-0.40283	0.6026	
2445.0	0.0	-0.40247	0.59912	
2446.0	0.0	-0.39395	0.60425	
2447.0	0.0	-0.39294	0.60608	
2448.0	0.0	-0.38379	0.608	
2449.0	0.0	-0.38214	0.62567	
2450.0	0.0	-0.3728	0.62897	
2451.0	0.0	-0.37088	0.63373	
2452.0	0.0	-0.36053	0.64655	
2453.0	0.0	-0.3576	0.64526	
2454.0	0.0	-0.34676	0.65277	
2455.0	0.0	-0.34204	0.65643	
2456.0	0.0	-0.33032	0.65845	
2457.0	0.0	-0.32574	0.65057	
2458.0	0.0	-0.31384	0.66321	
2459.0	0.0	-0.30981	0.65405	
2460.0	0.0	-0.29791	0.65442	
2461.0	0.0	-0.29315	0.64105	
2462.0	0.0	-0.28198	0.63794	
2463.0	0.0	-0.27722	0.62988	
2464.0	0.0	-0.26587	0.6264	
2465.0	0.0	-0.26166	0.61176	
2466.0	0.0	-0.25085	0.60663	
2467.0	0.0	-0.24774	0.60498	
2468.0	0.0	-0.23621	0.59198	
2469.0	0.0	-0.23218	0.59766	
2470.0	0.0	-0.22028	0.59216	
2471.0	0.0	-0.21661	0.58923	
2472.0	0.0	-0.20691	0.60443	
2473.0	0.0	-0.20508	0.59583	
2474.0	0.0	-0.19336	0.60004	
2475.0	0.0	-0.18475	0.59491	
2476.0	0.0	-0.16644	0.59088	
2477.0	0.0	-0.15125	0.58337	
2478.0	0.0	-0.12927	0.56689	
2479.0	0.0	-0.11536	0.54126	
2480.0	0.0	-0.0976	0.51929	
2481.0	0.0	-0.09009	0.48523	
2482.0	0.0	-0.07874	0.44888	
2483.0	0.0	-0.07562	0.42407	
2484.0	0.0	-0.0672	0.39459	
2485.0	0.0	-0.06647	0.36218	
2486.0	0.0	-0.05914	0.34882	
2487.0	0.0	-0.05933	0.34186	
2488.0	0.0	-0.0542	0.31439	
2489.0	0.0	-0.05896	0.30304	
2490.0	0.0	-0.05823	0.27567	
2491.0	0.0	-0.06702	0.24609	
2492.0	0.0	-0.06995	0.23566	
2493.0	0.0	-0.08221	0.20599	
2494.0	0.0	-0.08752	0.18777	
2495.0	0.0	-0.10236	0.17358	
2496.0	0.0	-0.11115	0.15948	
2497.0	0.0	-0.12781	0.14648	
2498.0	0.0	-0.13843	0.13037	
2499.0	0.0	-0.15747	0.12671	
2500.0	0.0	-0.16937	0.12341	
2501.0	0.0	-0.1886	0.10236	
2502.0	0.0	-0.19958	0.10474	
2503.0	0.0	-0.21753	0.09407	
2504.0	0.0	-0.22668	0.09576	
2505.0	0.0	-0.24225	0.09796	
2506.0	0.0	-0.24902	0.0921	
2507.0	0.0	-0.26074	0.10181	
2508.0	0.0	-0.26477	0.09192	
2509.0	0.0	-0.27484	0.09485	
2510.0	0.0	-0.27576	0.10144	
2511.0	0.0	-0.28363	0.09338	
2512.0	0.0	-0.28271	0.09613	
2513.0	0.0	-0.28784	0.08569	
2514.0	0.0	-0.28491	0.09155	
2515.0	0.0	-0.28821	0.10876	
2516.0	0.0	-0.28363	0.10657	
2517.0	0.0	-0.28638	0.08716	
2518.0	0.0	-0.28088	0.10382	
2519.0	0.0	-0.28235	0.09155	
2520.0	0.0	-0.27649	0.09787	
2521.0	0.0	-0.27686	0.08624	
2522.0	0.0	-0.27008	0.08221	
2523.0	0.0	-0.27045	0.08386	
2524.0	0.0	-0.26221	0.08524	
2525.0	0.0	-0.26001	0.08185	
2526.0	0.0	-0.24921	0.09485	
2527.0	0.0	-0.24554	0.08276	
2528.0	0.0	-0.23547	0.08551	
2529.0	0.0	-0.23291	0.09521	
2530.0	0.0	-0.22339	0.09485	
2531.0	0.0	-0.22156	0.09595	
2532.0	0.0	-0.21167	0.09045	
2533.0	0.0	-0.20746	0.10931	
2534.0	0.0	-0.19427	0.11554	
2535.0	0.0	-0.18768	0.1062	
2536.0	0.0	-0.17322	0.11682	
2537.0	0.0	-0.16608	0.11646	
2538.0	0.0	-0.15125	0.12433	
2539.0	0.0	-0.14447	0.13403	
2540.0	0.0	-0.13074	0.12305	
2541.0	0.0	-0.12433	0.13293	
2542.0	0.0	-0.11169	0.13934	
2543.0	0.0	-0.10529	0.14337	
2544.0	0.0	-0.09155	0.14923	
2545.0	0.0	-0.08533	0.1441	
2546.0	0.0	-0.07068	0.16168	
2547.0	0.0	-0.06409	0.15729	
2548.0	0.0	-0.05035	0.17432	
2549.0	0.0	-0.04431	0.17358	
2550.0	0.0	-0.03113	0.16333	
2551.0	0.0	-0.02527	0.17487	
2552.0	0.0	-0.01318	0.17551	
2553.0	0.0	-0.00769	0.1767	
2554.0	0.0	0.00458	0.17322	
2555.0	0.0	0.01007	0.17358	
2556.0	0.0	0.02051	0.17999	
2557.0	0.0	0.02399	0.18036	
2558.0	0.0	0.03406	0.17523	
2559.0	0.0	0.03699	0.1723	
2560.0	0.0	0.04742	0.18274	
2561.0	0.0	0.04999	0.17102	
2562.0	0.0	0.06006	0.18018	
2563.0	0.0	0.06226	0.18365	
2564.0	0.0	0.07269	0.18274	
2565.0	0.0	0.07617	0.18182	
2566.0	0.0	0.08679	0.18713	
2567.0	0.0	0.08899	0.17889	
2568.0	0.0	0.09851	0.1886	
2569.0	0.0	0.10071	0.19208	
2570.0	0.0	0.10876	0.18365	
2571.0	0.0	0.10986	0.18842	
2572.0	0.0	0.11682	0.19336	
2573.0	0.0	0.11728	0.18658	
2574.0	0.0	0.12415	0.19684	
2575.0	0.0	0.12378	0.20013	
2576.0	0.0	0.13037	0.1983	
2577.0	0.0	0.12946	0.20471	
2578.0	0.0	0.13605	0.2005	
2579.0	0.0	0.13513	0.21057	
2580.0	0.0	0.14117	0.20563	
2581.0	0.0	0.14117	0.21643	
2582.0	0.0	0.14722	0.20929	
2583.0	0.0	0.14648	0.21552	
2584.0	0.0	0.15381	0.22101	
2585.0	0.0	0.15308	0.22142	
2586.0	0.0	0.16022	0.23181	
2587.0	0.0	0.16077	0.23163	
2588.0	0.0	0.16699	0.22742	
2589.0	0.0	0.16699	0.23749	
2590.0	0.0	0.17432	0.24023	
2591.0	0.0	0.17432	0.23785	
2592.0	0.0	0.18109	0.23859	
2593.0	0.0	0.18201	0.2514	
2594.0	0.0	0.18915	0.25653	
2595.0	0.0	0.18933	0.25507	
2596.0	0.0	0.19702	0.25928	
2597.0	0.0	0.1972	0.25928	
2598.0	0.0	0.20691	0.26733	
2599.0	0.0	0.20874	0.25616	
2600.0	0.0	0.21991	0.2688	
2601.0	0.0	0.22449	0.26129	
2602.0	0.0	0.2373	0.25598	
2603.0	0.0	0.2439	0.24023	
2604.0	0.0	0.25781	0.23987	
2605.0	0.0	0.26514	0.2211	
2606.0	0.0	0.27979	0.21973	
2607.0	0.0	0.28528	0.20801	
2608.0	0.0	0.29407	0.19922	
2609.0	0.0	0.29095	0.19199	
2610.0	0.0	0.29004	0.19519	
2611.0	0.0	0.2785	0.18402	
2612.0	0.0	0.27283	0.19995	
2613.0	0.0	0.25854	0.20233	
2614.0	0.0	0.2514	0.20782	
2615.0	0.0	0.23676	0.21368	
2616.0	0.0	0.22852	0.21588	
2617.0	0.0	0.21057	0.23035	
2618.0	0.0	0.19794	0.23822	
2619.0	0.0	0.17596	0.24518	
2620.0	0.0	0.15985	0.2525	
2621.0	0.0	0.13715	0.26385	
2622.0	0.0	0.12177	0.28052	
2623.0	0.0	0.09998	0.28564	
2624.0	0.0	0.08752	0.30789	
2625.0	0.0	0.06995	0.30396	
2626.0	0.0	0.06226	0.30487	
2627.0	0.0	0.04834	0.30322	
2628.0	0.0	0.04248	0.30231	
2629.0	0.0	0.03058	0.27887	
2630.0	0.0	0.02747	0.26276	
2631.0	0.0	0.01904	0.24481	
2632.0	0.0	0.02051	0.21185	
2633.0	0.0	0.01831	0.17871	
2634.0	0.0	0.02673	0.15793	
2635.0	0.0	0.03003	0.12231	
2636.0	0.0	0.04321	0.09576	
2637.0	0.0	0.05017	0.06354	
2638.0	0.0	0.06628	0.0472	
2639.0	0.0	0.07544	0.0401	
2640.0	0.0	0.0921	0.02399	
2641.0	0.0	0.10052	0.01685	
2642.0	0.0	0.11499	0.00494	
2643.0	0.0	0.12048	-0.00641	
2644.0	0.0	0.13257	-0.00293	
2645.0	0.0	0.13422	-0.01007	
2646.0	0.0	0.14301	-0.01154	
2647.0	0.0	0.14282	-0.01419	
2648.0	0.0	0.14941	-0.00952	
2649.0	0.0	0.14777	-0.00879	
2650.0	0.0	0.15161	0.00032	
2651.0	0.0	0.14667	-0.00256	
2652.0	0.0	0.14758	0.00348	
2653.0	0.0	0.14246	0.00998	
2654.0	0.0	0.14209	0.0174	
2655.0	0.0	0.13403	0.02106	
2656.0	0.0	0.13257	0.0249	
2657.0	0.0	0.12341	0.01794	
2658.0	0.0	0.11993	0.02179	
2659.0	0.0	0.10822	0.02014	
2660.0	0.0	0.10254	0.0163	
2661.0	0.0	0.08936	0.01245	
2662.0	0.0	0.0835	0.02289	
2663.0	0.0	0.06958	0.01392	
2664.0	0.0	0.06299	0.02417	
2665.0	0.0	0.04962	0.02509	
2666.0	0.0	0.04395	0.04156	
2667.0	0.0	0.03149	0.04852	
2668.0	0.0	0.026	0.05896	
2669.0	0.0	0.01318	0.05814	
2670.0	0.0	0.00806	0.0694	
2671.0	0.0	-0.00421	0.08459	
2672.0	0.0	-0.00842	0.09558	
2673.0	0.0	-0.02014	0.09393	
2674.0	0.0	-0.02362	0.11499	
2675.0	0.0	-0.03442	0.10712	
2676.0	0.0	-0.03772	0.11829	
2677.0	0.0	-0.04761	0.13531	
2678.0	0.0	-0.05035	0.15088	
2679.0	0.0	-0.05988	0.15674	
2680.0	0.0	-0.06335	0.17047	
2681.0	0.0	-0.07343	0.17596	
2682.0	0.0	-0.07617	0.18201	
2683.0	0.0	-0.08551	0.18073	
2684.0	0.0	-0.08789	0.21039	
2685.0	0.0	-0.09741	0.21973	
2686.0	0.0	-0.09979	0.22403	
2687.0	0.0	-0.1095	0.23383	
2688.0	0.0	-0.11188	0.25598	
2689.0	0.0	-0.12195	0.26459	
2690.0	0.0	-0.12451	0.26715	
2691.0	0.0	-0.13367	0.26642	
2692.0	0.0	-0.13586	0.28656	
2693.0	0.0	-0.14465	0.29572	
2694.0	0.0	-0.14648	0.30414	
2695.0	0.0	-0.15527	0.31036	
2696.0	0.0	-0.15747	0.33124	
2697.0	0.0	-0.16626	0.32373	
2698.0	0.0	-0.17047	0.3371	
2699.0	0.0	-0.18146	0.33856	
2700.0	0.0	-0.18713	0.35431	
2701.0	0.0	-0.19849	0.36511	
2702.0	0.0	-0.20233	0.38306	
2703.0	0.0	-0.21204	0.38763	
2704.0	0.0	-0.21295	0.4054	
2705.0	0.0	-0.21973	0.39771	
2706.0	0.0	-0.21973	0.40942	
2707.0	0.0	-0.2254	0.42609	
2708.0	0.0	-0.22266	0.42444	
2709.0	0.0	-0.22449	0.42627	
2710.0	0.0	-0.21844	0.4281	
2711.0	0.0	-0.21625	0.43451	
2712.0	0.0	-0.20435	0.44128	
2713.0	0.0	-0.1972	0.43286	
2714.0	0.0	-0.18182	0.43542	
2715.0	0.0	-0.17285	0.44989	
2716.0	0.0	-0.15674	0.44385	
2717.0	0.0	-0.14648	0.44641	
2718.0	0.0	-0.12946	0.45007	
2719.0	0.0	-0.11884	0.46106	
2720.0	0.0	-0.10126	0.45502	
2721.0	0.0	-0.09027	0.4519	
2722.0	0.0	-0.07397	0.45758	
2723.0	0.0	-0.06519	0.46143	
2724.0	0.0	-0.05035	0.45209	
2725.0	0.0	-0.04431	0.45227	
2726.0	0.0	-0.03314	0.45483	
2727.0	0.0	-0.03003	0.46234	
2728.0	0.0	-0.02197	0.44458	
2729.0	0.0	-0.02087	0.45149	
2730.0	0.0	-0.01465	0.43808	
2731.0	0.0	-0.01392	0.41895	
2732.0	0.0	-0.00842	0.42151	
2733.0	0.0	-0.01025	0.41895	
2734.0	0.0	-0.00549	0.4162	
2735.0	0.0	-0.00732	0.40411	
2736.0	0.0	-0.00165	0.40521	
2737.0	0.0	-0.00183	0.40869	
2738.0	0.0	0.00513	0.40503	
2739.0	0.0	0.00586	0.40411	
2740.0	0.0	0.01337	0.40283	
2741.0	0.0	0.01611	0.39514	
2742.0	0.0	0.02673	0.40063	
2743.0	0.0	0.03058	0.3891	
2744.0	0.0	0.04138	0.38599	
2745.0	0.0	0.04578	0.38232	
2746.0	0.0	0.0553	0.39404	
2747.0	0.0	0.05896	0.38983	
2748.0	0.0	0.06775	0.3924	
2749.0	0.0	0.07068	0.39111	
2750.0	0.0	0.07983	0.38196	
2751.0	0.0	0.08167	0.38434	
2752.0	0.0	0.08936	0.3924	
2753.0	0.0	0.09082	0.39734	
2754.0	0.0	0.09833	0.40851	
2755.0	0.0	0.09943	0.41162	
2756.0	0.0	0.10565	0.41336	
2757.0	0.0	0.10657	0.427	
2758.0	0.0	0.11298	0.43323	
2759.0	0.0	0.11353	0.42828	
2760.0	0.0	0.11975	0.4281	
2761.0	0.0	0.12012	0.43085	
2762.0	0.0	0.12598	0.43799	
2763.0	0.0	0.12598	0.4487	
2764.0	0.0	0.13202	0.45245	
2765.0	0.0	0.1322	0.44019	
2766.0	0.0	0.13843	0.44733	
2767.0	0.0	0.13916	0.44733	
2768.0	0.0	0.14539	0.45648	
2769.0	0.0	0.14575	0.45145	
2770.0	0.0	0.15179	0.45648	
2771.0	0.0	0.15198	0.4563	
2772.0	0.0	0.15857	0.46124	
2773.0	0.0	0.1582	0.46381	
2774.0	0.0	0.16406	0.46907	
2775.0	0.0	0.16479	0.47223	
2776.0	0.0	0.17029	0.4801	
2777.0	0.0	0.17102	0.48486	
2778.0	0.0	0.17651	0.48395	
2779.0	0.0	0.17651	0.4845	
2780.0	0.0	0.18274	0.48505	
2781.0	0.0	0.18311	0.49713	
2782.0	0.0	0.18878	0.48669	
2783.0	0.0	0.1897	0.49054	
2784.0	0.0	0.19519	0.49658	
2785.0	0.0	0.19537	0.49512	
2786.0	0.0	0.20142	0.48669	
2787.0	0.0	0.20087	0.4942	
2788.0	0.0	0.20544	0.49045	
2789.0	0.0	0.20471	0.48578	
2790.0	0.0	0.21094	0.48944	
2791.0	0.0	0.21185	0.49146	
2792.0	0.0	0.21936	0.47754	
2793.0	0.0	0.22046	0.47864	
2794.0	0.0	0.22559	0.46875	
2795.0	0.0	0.22485	0.47443	
2796.0	0.0	0.22815	0.46637	
2797.0	0.0	0.22632	0.45428	
2798.0	0.0	0.23071	0.46271	
2799.0	0.0	0.23035	0.4585	
2800.0	0.0	0.2373	0.45612	
2801.0	0.0	0.2395	0.45282	
2802.0	0.0	0.24756	0.45905	
2803.0	0.0	0.25049	0.4563	
2804.0	0.0	0.25854	0.45978	
2805.0	0.0	0.26184	0.45428	
2806.0	0.0	0.26935	0.46564	
2807.0	0.0	0.27136	0.46582	
2808.0	0.0	0.27869	0.47003	
2809.0	0.0	0.28033	0.46692	
2810.0	0.0	0.28748	0.47113	
2811.0	0.0	0.29004	0.46216	
2812.0	0.0	0.29736	0.46545	
2813.0	0.0	0.30029	0.46216	
2814.0	0.0	0.30762	0.4682	
2815.0	0.0	0.31018	0.46344	
2816.0	0.0	0.31787	0.46417	
2817.0	0.0	0.32043	0.44751	
2818.0	0.0	0.32758	0.45483	
2819.0	0.0	0.32886	0.44604	
2820.0	0.0	0.33582	0.44385	
2821.0	0.0	0.3371	0.45392	
2822.0	0.0	0.34167	0.44458	
2823.0	0.0	0.34222	0.44	
2824.0	0.0	0.34717	0.44897	
2825.0	0.0	0.34698	0.44751	
2826.0	0.0	0.35193	0.44348	
2827.0	0.0	0.35193	0.43414	
2828.0	0.0	0.35651	0.44458	
2829.0	0.0	0.35724	0.44385	
2830.0	0.0	0.36255	0.43945	
2831.0	0.0	0.36328	0.43799	
2832.0	0.0	0.36823	0.43176	
2833.0	0.0	0.36877	0.44	
2834.0	0.0	0.37354	0.4444	
2835.0	0.0	0.37354	0.43286	
2836.0	0.0	0.3772	0.44513	
2837.0	0.0	0.3761	0.4444	
2838.0	0.0	0.37939	0.4389	
2839.0	0.0	0.37756	0.43451	
2840.0	0.0	0.37994	0.43542	
2841.0	0.0	0.37793	0.43561	
2842.0	0.0	0.37939	0.44147	
2843.0	0.0	0.3761	0.44971	
2844.0	0.0	0.37756	0.4411	
2845.0	0.0	0.37482	0.44934	
2846.0	0.0	0.37573	0.45044	
2847.0	0.0	0.37299	0.45264	
2848.0	0.0	0.37427	0.44147	
2849.0	0.0	0.37097	0.44934	
2850.0	0.0	0.37244	0.45483	
2851.0	0.0	0.36951	0.44934	
2852.0	0.0	0.37024	0.44559	
2853.0	0.0	0.36768	0.45374	
2854.0	0.0	0.36841	0.4444	
2855.0	0.0	0.36621	0.45795	
2856.0	0.0	0.36731	0.44897	
2857.0	0.0	0.36438	0.45886	
2858.0	0.0	0.36603	0.45703	
2859.0	0.0	0.36328	0.45941	
2860.0	0.0	0.3642	0.46033	
2861.0	0.0	0.36072	0.45721	
2862.0	0.0	0.36182	0.453	
2863.0	0.0	0.35889	0.45575	
2864.0	0.0	0.35962	0.46143	
2865.0	0.0	0.35706	0.46051	
2866.0	0.0	0.35687	0.45667	
2867.0	0.0	0.35431	0.45392	
2868.0	0.0	0.35486	0.4585	
2869.0	0.0	0.3512	0.45392	
2870.0	0.0	0.35101	0.4585	
2871.0	0.0	0.34717	0.45721	
2872.0	0.0	0.34717	0.44568	
2873.0	0.0	0.34351	0.45062	
2874.0	0.0	0.34351	0.45557	
2875.0	0.0	0.34094	0.45099	
2876.0	0.0	0.34167	0.45355	
2877.0	0.0	0.33875	0.44952	
2878.0	0.0	0.33929	0.45575	
2879.0	0.0	0.33618	0.44293	
2880.0	0.0	0.33563	0.45557	
2881.0	0.0	0.33252	0.44293	
2882.0	0.0	0.3338	0.4411	
2883.0	0.0	0.33252	0.43781	
2884.0	0.0	0.33582	0.44604	
2885.0	0.0	0.33435	0.44312	
2886.0	0.0	0.33582	0.43762	
2887.0	0.0	0.33289	0.42993	
2888.0	0.0	0.33197	0.44037	
2889.0	0.0	0.32831	0.43579	
2890.0	0.0	0.32904	0.43597	
2891.0	0.0	0.32739	0.4389	
2892.0	0.0	0.33032	0.44183	
2893.0	0.0	0.33069	0.43011	
2894.0	0.0	0.33453	0.44202	
2895.0	0.0	0.33655	0.43469	
2896.0	0.0	0.34131	0.44641	
2897.0	0.0	0.34259	0.44055	
2898.0	0.0	0.34625	0.45374	
2899.0	0.0	0.34662	0.45721	
2900.0	0.0	0.34973	0.44563	
2901.0	0.0	0.3501	0.44714	
2902.0	0.0	0.35339	0.4552	
2903.0	0.0	0.35449	0.45007	
2904.0	0.0	0.35834	0.45374	
2905.0	0.0	0.35815	0.45319	
2906.0	0.0	0.36218	0.45612	
2907.0	0.0	0.362	0.45081	
2908.0	0.0	0.36511	0.45081	
2909.0	0.0	0.36475	0.43799	
2910.0	0.0	0.36621	0.44563	
2911.0	0.0	0.36584	0.44934	
2912.0	0.0	0.36768	0.43488	
2913.0	0.0	0.36676	0.44531	
2914.0	0.0	0.36731	0.43323	
2915.0	0.0	0.36475	0.43982	
2916.0	0.0	0.36511	0.44495	
2917.0	0.0	0.36255	0.43689	
2918.0	0.0	0.36273	0.43982	
2919.0	0.0	0.36035	0.43835	
2920.0	0.0	0.36072	0.43927	
2921.0	0.0	0.35815	0.43726	
2922.0	0.0	0.3598	0.43268	
2923.0	0.0	0.35852	0.42627	
2924.0	0.0	0.36035	0.42316	
2925.0	0.0	0.35889	0.42206	
2926.0	0.0	0.35999	0.43085	
2927.0	0.0	0.35852	0.42059	
2928.0	0.0	0.35815	0.4259	
2929.0	0.0	0.35614	0.41895	
2930.0	0.0	0.35522	0.42938	
2931.0	0.0	0.35229	0.42517	
2932.0	0.0	0.3512	0.43469	
2933.0	0.0	0.34717	0.43323	
2934.0	0.0	0.34534	0.43304	
2935.0	0.0	0.34204	0.43561	
2936.0	0.0	0.33948	0.4411	
2937.0	0.0	0.33545	0.43176	
2938.0	0.0	0.33435	0.44513	
2939.0	0.0	0.32996	0.4465	
2940.0	0.0	0.32886	0.4455	
2941.0	0.0	0.32492	0.43561	
2942.0	0.0	0.32336	0.44476	
2943.0	0.0	0.32043	0.44385	
2944.0	0.0	0.3186	0.43964	
2945.0	0.0	0.31512	0.44238	
2946.0	0.0	0.31348	0.44275	
2947.0	0.0	0.30963	0.44641	
2948.0	0.0	0.30835	0.45374	
2949.0	0.0	0.30432	0.44092	
2950.0	0.0	0.30286	0.45502	
2951.0	0.0	0.29883	0.44238	
2952.0	0.0	0.29736	0.45355	
2953.0	0.0	0.29407	0.4411	
2954.0	0.0	0.29205	0.44696	
2955.0	0.0	0.28857	0.44659	
2956.0	0.0	0.28711	0.45172	
2957.0	0.0	0.28363	0.44824	
2958.0	0.0	0.28162	0.44604	
2959.0	0.0	0.27832	0.44971	
2960.0	0.0	0.27667	0.44934	
2961.0	0.0	0.27283	0.44531	
2962.0	0.0	0.271	0.44238	
2963.0	0.0	0.26807	0.44366	
2964.0	0.0	0.26587	0.43579	
2965.0	0.0	0.26221	0.44714	
2966.0	0.0	0.26001	0.43652	
2967.0	0.0	0.25635	0.45007	
2968.0	0.0	0.25452	0.43506	
2969.0	0.0	0.25049	0.44934	
2970.0	0.0	0.24792	0.44678	
2971.0	0.0	0.24536	0.44128	
2972.0	0.0	0.24408	0.44696	
2973.0	0.0	0.2417	0.44458	
2974.0	0.0	0.23987	0.43634	
2975.0	0.0	0.23822	0.44513	
2976.0	0.0	0.23584	0.43872	
2977.0	0.0	0.23346	0.43286	
2978.0	0.0	0.23236	0.43359	
2979.0	0.0	0.23145	0.4325	
2980.0	0.0	0.23273	0.43231	
2981.0	0.0	0.23328	0.43872	
2982.0	0.0	0.23401	0.43579	
2983.0	0.0	0.23383	0.43451	
2984.0	0.0	0.23218	0.43726	
2985.0	0.0	0.23035	0.42279	
2986.0	0.0	0.22925	0.43488	
2987.0	0.0	0.22906	0.43176	
2988.0	0.0	0.23035	0.43048	
2989.0	0.0	0.23254	0.42847	
2990.0	0.0	0.23657	0.42535	
2991.0	0.0	0.24023	0.43103	
2992.0	0.0	0.24463	0.42517	
2993.0	0.0	0.24921	0.43359	
2994.0	0.0	0.25305	0.42682	
2995.0	0.0	0.25635	0.42316	
2996.0	0.0	0.25964	0.43579	
2997.0	0.0	0.26184	0.42426	
2998.0	0.0	0.2644	0.43506	
2999.0	0.0	0.26624	0.4303	
3000.0	0.0	0.26862	0.43652	
3001.0	0.0	0.2699	0.4259	
3002.0	0.0	0.271	0.43927	
3003.0	0.0	0.27209	0.42352	
3004.0	0.0	0.271	0.4292	
3005.0	0.0	0.271	0.42664	
3006.0	0.0	0.2699	0.42719	
3007.0	0.0	0.26917	0.42023	
3008.0	0.0	0.26843	0.41455	
3009.0	0.0	0.26733	0.41473	
3010.0	0.0	0.2655	0.4162	
3011.0	0.0	0.26312	0.40979	
3012.0	0.0	0.26111	0.41492	
3013.0	0.0	0.25854	0.41473	
3014.0	0.0	0.25598	0.41327	
3015.0	0.0	0.25342	0.41418	
3016.0	0.0	0.25085	0.40915	
3017.0	0.0	0.24921	0.40503	
3018.0	0.0	0.24774	0.41048	
3019.0	0.0	0.24774	0.40082	
3020.0	0.0	0.24756	0.40265	
3021.0	0.0	0.24811	0.40814	
3022.0	0.0	0.24719	0.39862	
3023.0	0.0	0.24683	0.40668	
3024.0	0.0	0.24463	0.39075	
3025.0	0.0	0.24316	0.39862	
3026.0	0.0	0.24023	0.40393	
3027.0	0.0	0.23804	0.39185	
3028.0	0.0	0.23474	0.4054	
3029.0	0.0	0.23199	0.39587	
3030.0	0.0	0.22778	0.39789	
3031.0	0.0	0.22394	0.40686	
3032.0	0.0	0.21918	0.40851	
3033.0	0.0	0.2157	0.41034	
3034.0	0.0	0.21167	0.41675	
3035.0	0.0	0.20801	0.40778	
3036.0	0.0	0.20471	0.42444	
3037.0	0.0	0.20178	0.4259	
3038.0	0.0	0.19885	0.41949	
3039.0	0.0	0.19629	0.42407	
3040.0	0.0	0.19354	0.4303	
3041.0	0.0	0.19116	0.4259	
3042.0	0.0	0.18896	0.4248	
3043.0	0.0	0.18677	0.42078	
3044.0	0.0	0.18457	0.43616	
3045.0	0.0	0.18329	0.43103	
3046.0	0.0	0.18127	0.43909	
3047.0	0.0	0.18018	0.43341	
3048.0	0.0	0.17871	0.43103	
3049.0	0.0	0.17761	0.43359	
3050.0	0.0	0.17651	0.44366	
3051.0	0.0	0.17542	0.44952	
3052.0	0.0	0.17358	0.4411	
3053.0	0.0	0.17322	0.44861	
3054.0	0.0	0.17212	0.45923	
3055.0	0.0	0.17139	0.44971	
3056.0	0.0	0.16992	0.45886	
3057.0	0.0	0.16974	0.46033	
3058.0	0.0	0.16754	0.46124	
3059.0	0.0	0.16699	0.47479	
3060.0	0.0	0.16553	0.47333	
3061.0	0.0	0.16553	0.46527	
3062.0	0.0	0.16479	0.47296	
3063.0	0.0	0.16461	0.47388	
3064.0	0.0	0.16351	0.47974	
3065.0	0.0	0.16351	0.47205	
3066.0	0.0	0.16278	0.47809	
3067.0	0.0	0.16296	0.47424	
3068.0	0.0	0.16223	0.48853	
3069.0	0.0	0.1626	0.48079	
3070.0	0.0	0.16296	0.48065	
3071.0	0.0	0.16388	0.492	
3072.0	0.0	0.16351	0.49109	
3073.0	0.0	0.16425	0.49246	
3074.0	0.0	0.16278	0.48706	
3075.0	0.0	0.16351	0.48322	
3076.0	0.0	0.16333	0.48779	
3077.0	0.0	0.16534	0.48486	
3078.0	0.0	0.16718	0.492	
3079.0	0.0	0.17029	0.49072	
3080.0	0.0	0.17102	0.49164	
3081.0	0.0	0.17157	0.4834	
3082.0	0.0	0.17047	0.49475	
3083.0	0.0	0.16864	0.49329	
3084.0	0.0	0.16626	0.49695	
3085.0	0.0	0.16608	0.49493	
3086.0	0.0	0.16516	0.49402	
3087.0	0.0	0.16663	0.49182	
3088.0	0.0	0.16772	0.50024	
3089.0	0.0	0.17084	0.50528	
3090.0	0.0	0.17249	0.5094	
3091.0	0.0	0.17651	0.50711	
3092.0	0.0	0.17871	0.51178	
3093.0	0.0	0.18201	0.5127	
3094.0	0.0	0.18347	0.51196	
3095.0	0.0	0.18622	0.51746	
3096.0	0.0	0.18713	0.51068	
3097.0	0.0	0.19006	0.51672	
3098.0	0.0	0.19098	0.51416	
3099.0	0.0	0.19373	0.51022	
3100.0	0.0	0.19519	0.51306	
3101.0	0.0	0.19812	0.50024	
3102.0	0.0	0.19904	0.505	
3103.0	0.0	0.20178	0.49915	
3104.0	0.0	0.20325	0.48322	
3105.0	0.0	0.20636	0.48944	
3106.0	0.0	0.20746	0.47626	
3107.0	0.0	0.21094	0.4812	
3108.0	0.0	0.2113	0.48212	
3109.0	0.0	0.21277	0.48303	
3110.0	0.0	0.2124	0.47644	
3111.0	0.0	0.21478	0.47626	
3112.0	0.0	0.21423	0.46637	
3113.0	0.0	0.21643	0.47955	
3114.0	0.0	0.21643	0.47333	
3115.0	0.0	0.21881	0.47827	
3116.0	0.0	0.21899	0.47516	
3117.0	0.0	0.22192	0.47736	
3118.0	0.0	0.22412	0.46893	
3119.0	0.0	0.22778	0.47305	
3120.0	0.0	0.2287	0.46967	
3121.0	0.0	0.23145	0.46637	
3122.0	0.0	0.23163	0.46454	
3123.0	0.0	0.23291	0.47516	
3124.0	0.0	0.23218	0.47186	
3125.0	0.0	0.23401	0.46875	
3126.0	0.0	0.23218	0.47443	
3127.0	0.0	0.23291	0.47928	
3128.0	0.0	0.2309	0.47589	
3129.0	0.0	0.23145	0.4801	
3130.0	0.0	0.22906	0.47864	
3131.0	0.0	0.22961	0.48615	
3132.0	0.0	0.22742	0.4866	
3133.0	0.0	0.22815	0.48724	
3134.0	0.0	0.2265	0.47809	
3135.0	0.0	0.22778	0.48413	
3136.0	0.0	0.22595	0.49246	
3137.0	0.0	0.22668	0.48816	
3138.0	0.0	0.22522	0.48761	
3139.0	0.0	0.22632	0.49164	
3140.0	0.0	0.22467	0.49493	
3141.0	0.0	0.22595	0.48395	
3142.0	0.0	0.22375	0.48798	
3143.0	0.0	0.22559	0.4964	
3144.0	0.0	0.22412	0.48651	
3145.0	0.0	0.22522	0.48376	
3146.0	0.0	0.22412	0.48633	
3147.0	0.0	0.22559	0.49036	
3148.0	0.0	0.22339	0.49036	
3149.0	0.0	0.22485	0.49017	
3150.0	0.0	0.22321	0.47845	
3151.0	0.0	0.22485	0.48486	
3152.0	0.0	0.22266	0.48944	
3153.0	0.0	0.22412	0.4845	
3154.0	0.0	0.22174	0.48074	
3155.0	0.0	0.22412	0.4801	
3156.0	0.0	0.22211	0.47754	
3157.0	0.0	0.22302	0.48212	
3158.0	0.0	0.22046	0.48138	
3159.0	0.0	0.22119	0.47681	
3160.0	0.0	0.21863	0.46564	
3161.0	0.0	0.21899	0.47003	
3162.0	0.0	0.2157	0.47498	
3163.0	0.0	0.21643	0.47443	
3164.0	0.0	0.2135	0.4715	
3165.0	0.0	0.21442	0.46399	
3166.0	0.0	0.2113	0.4563	
3167.0	0.0	0.21222	0.4563	
3168.0	0.0	0.20837	0.46436	
3169.0	0.0	0.20837	0.45703	
3170.0	0.0	0.20398	0.44641	
3171.0	0.0	0.20416	0.44623	
3172.0	0.0	0.20087	0.45721	
3173.0	0.0	0.20197	0.4563	
3174.0	0.0	0.19995	0.45172	
3175.0	0.0	0.20215	0.44861	
3176.0	0.0	0.19958	0.43854	
3177.0	0.0	0.19977	0.43579	
3178.0	0.0	0.19427	0.42499	
3179.0	0.0	0.19354	0.4222	
3180.0	0.0	0.18842	0.40979	
3181.0	0.0	0.1886	0.41913	
3182.0	0.0	0.18494	0.41309	
3183.0	0.0	0.18658	0.40283	
3184.0	0.0	0.1842	0.41455	
3185.0	0.0	0.18768	0.40192	
3186.0	0.0	0.18604	0.40228	
3187.0	0.0	0.18915	0.40887	
3188.0	0.0	0.1875	0.39294	
3189.0	0.0	0.1897	0.39349	
3190.0	0.0	0.1864	0.38223	
3191.0	0.0	0.18768	0.38269	
3192.0	0.0	0.18439	0.38599	
3193.0	0.0	0.1853	0.38104	
3194.0	0.0	0.18091	0.36072	
3195.0	0.0	0.18073	0.35898	
3196.0	0.0	0.17615	0.35815	
3197.0	0.0	0.17523	0.34039	
3198.0	0.0	0.16956	0.32556	
3199.0	0.0	0.16772	0.32373	
3200.0	0.0	0.16077	0.30615	
3201.0	0.0	0.15784	0.30469	
3202.0	0.0	0.15051	0.2926	
3203.0	0.0	0.14685	0.28125	
3204.0	0.0	0.13733	0.26624	
3205.0	0.0	0.13147	0.25891	
3206.0	0.0	0.1214	0.24335	
3207.0	0.0	0.11499	0.2363	
3208.0	0.0	0.10437	0.23035	
3209.0	0.0	0.09888	0.22339	
3210.0	0.0	0.08771	0.21204	
3211.0	0.0	0.0813	0.2038	
3212.0	0.0	0.07104	0.19153	
3213.0	0.0	0.06592	0.17587	
3214.0	0.0	0.05603	0.17395	
3215.0	0.0	0.0509	0.16388	
3216.0	0.0	0.04083	0.15308	
3217.0	0.0	0.03516	0.14319	
3218.0	0.0	0.02454	0.11737	
3219.0	0.0	0.01758	0.12048	
3220.0	0.0	0.00623	0.10199	
3221.0	0.0	-0.0011	0.08725	
3222.0	0.0	-0.01337	0.07562	
3223.0	0.0	-0.02087	0.07343	
3224.0	0.0	-0.03369	0.05457	
3225.0	0.0	-0.04138	0.05145	
3226.0	0.0	-0.05365	0.03333	
3227.0	0.0	-0.06079	0.03136	
3228.0	0.0	-0.07288	0.01373	
3229.0	0.0	-0.07947	0.00618	
3230.0	0.0	-0.09082	0.00018	
3231.0	0.0	-0.09796	-0.00192	
3232.0	0.0	-0.1095	-0.01556	
3233.0	0.0	-0.11646	-0.03186	
3234.0	0.0	-0.12762	-0.03223	
3235.0	0.0	-0.13403	-0.04779	
3236.0	0.0	-0.14484	-0.05145	
3237.0	0.0	-0.15051	-0.06134	
3238.0	0.0	-0.1615	-0.05585	
3239.0	0.0	-0.16699	-0.06427	
3240.0	0.0	-0.17816	-0.07123	
3241.0	0.0	-0.18494	-0.07471	
3242.0	0.0	-0.19684	-0.07379	
3243.0	0.0	-0.20288	-0.07452	
3244.0	0.0	-0.21368	-0.08514	
3245.0	0.0	-0.21899	-0.07837	
3246.0	0.0	-0.22943	-0.08304	
3247.0	0.0	-0.23401	-0.07159	
3248.0	0.0	-0.24445	-0.06885	
3249.0	0.0	-0.24866	-0.07141	
3250.0	0.0	-0.25809	-0.06418	
3251.0	0.0	-0.26184	-0.04962	
3252.0	0.0	-0.27136	-0.0531	
3253.0	0.0	-0.27539	-0.04092	
3254.0	0.0	-0.28528	-0.03625	
3255.0	0.0	-0.28894	-0.03484	
3256.0	0.0	-0.29919	-0.01611	
3257.0	0.0	-0.30212	-0.01831	
3258.0	0.0	-0.31165	-0.00696	
3259.0	0.0	-0.31476	0.00586	
3260.0	0.0	-0.323	0.00348	
3261.0	0.0	-0.32584	0.02472	
3262.0	0.0	-0.33398	0.03561	
3263.0	0.0	-0.33673	0.05292	
3264.0	0.0	-0.34607	0.06702	
3265.0	0.0	-0.34973	0.07471	
3266.0	0.0	-0.35852	0.07892	
3267.0	0.0	-0.36017	0.09082	
3268.0	0.0	-0.36749	0.09082	
3269.0	0.0	-0.36823	0.11353	
3270.0	0.0	-0.37592	0.09998	
3271.0	0.0	-0.37811	0.12177	
3272.0	0.0	-0.38626	0.13641	
3273.0	0.0	-0.38928	0.14209	
3274.0	0.0	-0.39624	0.14594	
3275.0	0.0	-0.39661	0.17267	
3276.0	0.0	-0.40173	0.17029	
3277.0	0.0	-0.40027	0.1972	
3278.0	0.0	-0.40466	0.21277	
3279.0	0.0	-0.40265	0.22467	
3280.0	0.0	-0.40576	0.23804	
3281.0	0.0	-0.40393	0.2666	
3282.0	0.0	-0.40759	0.29004	
3283.0	0.0	-0.4043	0.29553	
3284.0	0.0	-0.40631	0.31915	
3285.0	0.0	-0.4021	0.336	
3286.0	0.0	-0.40247	0.35632	
3287.0	0.0	-0.39679	0.39166	
3288.0	0.0	-0.39697	0.39844	
3289.0	0.0	-0.39166	0.43085	
3290.0	0.0	-0.39331	0.43341	
3291.0	0.0	-0.3891	0.46289	
3292.0	0.0	-0.39203	0.47974	
3293.0	0.0	-0.38965	0.49695	
3294.0	0.0	-0.39514	0.51233	
3295.0	0.0	-0.39514	0.53247	
3296.0	0.0	-0.40283	0.53577	
3297.0	0.0	-0.40649	0.54913	
3298.0	0.0	-0.41785	0.55298	
3299.0	0.0	-0.42627	0.56506	
3300.0	0.0	-0.44019	0.56653	
3301.0	0.0	-0.44861	0.56708	
3302.0	0.0	-0.46298	0.55737	
3303.0	0.0	-0.47205	0.55078	
3304.0	0.0	-0.48706	0.53064	
3305.0	0.0	-0.4975	0.51306	
3306.0	0.0	-0.51361	0.48907	
3307.0	0.0	-0.5246	0.46069	
3308.0	0.0	-0.54099	0.41803	
3309.0	0.0	-0.5517	0.40704	
3310.0	0.0	-0.56744	0.35925	
3311.0	0.0	-0.57751	0.33179	
3312.0	0.0	-0.59308	0.30762	
3313.0	0.0	-0.60333	0.28564	
3314.0	0.0	-0.61816	0.24115	
3315.0	0.0	-0.62549	0.22119	
3316.0	0.0	-0.63831	0.18201	
3317.0	0.0	-0.64453	0.17175	
3318.0	0.0	-0.65579	0.13477	
3319.0	0.0	-0.6601	0.10876	
3320.0	0.0	-0.6698	0.07965	
3321.0	0.0	-0.67291	0.065	
3322.0	0.0	-0.68115	0.0434	
3323.0	0.0	-0.68262	0.01904	
3324.0	0.0	-0.69077	-0.00073	
3325.0	0.0	-0.69315	0.00366	
3326.0	0.0	-0.70157	-0.02673	
3327.0	0.0	-0.70367	-0.02161	
3328.0	0.0	-0.71063	-0.0368	
3329.0	0.0	-0.71036	-0.04834	
3330.0	0.0	-0.71558	-0.05713	
3331.0	0.0	-0.71356	-0.07407	
3332.0	0.0	-0.71814	-0.06848	
3333.0	0.0	-0.71484	-0.07562	
3334.0	0.0	-0.71814	-0.08313	
3335.0	0.0	-0.71393	-0.08386	
3336.0	0.0	-0.71667	-0.08459	
3337.0	0.0	-0.71118	-0.07004	
3338.0	0.0	-0.7132	-0.07031	
3339.0	0.0	-0.70789	-0.04028	
3340.0	0.0	-0.70972	-0.04578	
3341.0	0.0	-0.70514	-0.01227	
3342.0	0.0	-0.70789	-0.0119	
3343.0	0.0	-0.70422	0.00623	
3344.0	0.0	-0.70894	0.01044	
3345.0	0.0	-0.70496	0.04028	
3346.0	0.0	-0.70862	0.05383	
3347.0	0.0	-0.70569	0.07452	
3348.0	0.0	-0.70953	0.07562	
3349.0	0.0	-0.70605	0.10455	
3350.0	0.0	-0.71008	0.11041	
3351.0	0.0	-0.70752	0.1366	
3352.0	0.0	-0.71356	0.1322	
3353.0	0.0	-0.71228	0.14795	
3354.0	0.0	-0.71924	0.16022	
3355.0	0.0	-0.71759	0.17047	
3356.0	0.0	-0.72437	0.18182	
3357.0	0.0	-0.72382	0.19519	
3358.0	0.0	-0.73004	0.21735	
3359.0	0.0	-0.72858	0.22284	
3360.0	0.0	-0.73489	0.21973	
3361.0	0.0	-0.7337	0.24353	
3362.0	0.0	-0.73975	0.2417	
3363.0	0.0	-0.73737	0.26312	
3364.0	0.0	-0.74268	0.27118	
3365.0	0.0	-0.73865	0.28088	
3366.0	0.0	-0.74176	0.28894	
3367.0	0.0	-0.73636	0.30249	
3368.0	0.0	-0.73773	0.32538	
3369.0	0.0	-0.72986	0.32446	
3370.0	0.0	-0.72894	0.34882	
3371.0	0.0	-0.71979	0.3338	
3372.0	0.0	-0.71777	0.35632	
3373.0	0.0	-0.70642	0.37134	
3374.0	0.0	-0.70441	0.39148	
3375.0	0.0	-0.6947	0.39294	
3376.0	0.0	-0.69287	0.40924	
3377.0	0.0	-0.68427	0.41675	
3378.0	0.0	-0.68335	0.42444	
3379.0	0.0	-0.67548	0.43391	
3380.0	0.0	-0.67548	0.41528	
3381.0	0.0	-0.66797	0.4184	
3382.0	0.0	-0.66888	0.42993	
3383.0	0.0	-0.66238	0.42773	
3384.0	0.0	-0.66458	0.43506	
3385.0	0.0	-0.65845	0.45026	
3386.0	0.0	-0.66156	0.44238	
3387.0	0.0	-0.65662	0.45319	
3388.0	0.0	-0.65918	0.45309	
3389.0	0.0	-0.65387	0.44559	
3390.0	0.0	-0.65643	0.45282	
3391.0	0.0	-0.65021	0.44971	
3392.0	0.0	-0.65314	0.44623	
3393.0	0.0	-0.64746	0.45483	
3394.0	0.0	-0.64783	0.466	
3395.0	0.0	-0.64069	0.47589	
3396.0	0.0	-0.64059	0.4585	
3397.0	0.0	-0.63373	0.47479	
3398.0	0.0	-0.63446	0.4834	
3399.0	0.0	-0.62888	0.47168	
3400.0	0.0	-0.63062	0.48468	
3401.0	0.0	-0.62494	0.49475	
3402.0	0.0	-0.62709	0.4975	
3403.0	0.0	-0.62	0.5094	
3404.0	0.0	-0.62109	0.51379	
3405.0	0.0	-0.61322	0.52441	
3406.0	0.0	-0.61285	0.52075	
3407.0	0.0	-0.60425	0.52863	
3408.0	0.0	-0.6026	0.53503	
3409.0	0.0	-0.59253	0.53741	
3410.0	0.0	-0.58997	0.5451	
3411.0	0.0	-0.57788	0.54236	
3412.0	0.0	-0.57312	0.53705	
3413.0	0.0	-0.56012	0.53522	
3414.0	0.0	-0.55444	0.52588	
3415.0	0.0	-0.54089	0.5191	
3416.0	0.0	-0.53467	0.50061	
3417.0	0.0	-0.52075	0.49475	
3418.0	0.0	-0.51416	0.49695	
3419.0	0.0	-0.49915	0.48816	
3420.0	0.0	-0.49182	0.48871	
3421.0	0.0	-0.47662	0.47534	
3422.0	0.0	-0.4693	0.47241	
3423.0	0.0	-0.45392	0.48486	
3424.0	0.0	-0.44604	0.48395	
3425.0	0.0	-0.42957	0.48413	
3426.0	0.0	-0.42096	0.47736	
3427.0	0.0	-0.40485	0.47223	
3428.0	0.0	-0.39587	0.45081	
3429.0	0.0	-0.37939	0.46582	
3430.0	0.0	-0.36987	0.45392	
3431.0	0.0	-0.35431	0.46692	
3432.0	0.0	-0.34552	0.4455	
3433.0	0.0	-0.32941	0.45428	
3434.0	0.0	-0.3208	0.43964	
3435.0	0.0	-0.30542	0.44019	
3436.0	0.0	-0.2981	0.4292	
3437.0	0.0	-0.28381	0.41473	
3438.0	0.0	-0.27649	0.4184	
3439.0	0.0	-0.26147	0.39459	
3440.0	0.0	-0.25415	0.39423	
3441.0	0.0	-0.23914	0.3924	
3442.0	0.0	-0.23163	0.37335	
3443.0	0.0	-0.21606	0.39111	
3444.0	0.0	-0.20746	0.38049	
3445.0	0.0	-0.1908	0.37006	
3446.0	0.0	-0.18109	0.3631	
3447.0	0.0	-0.1626	0.35669	
3448.0	0.0	-0.15234	0.35889	
3449.0	0.0	-0.13403	0.362	
3450.0	0.0	-0.12286	0.34039	
3451.0	0.0	-0.10437	0.3457	
3452.0	0.0	-0.09375	0.32977	
3453.0	0.0	-0.07581	0.33417	
3454.0	0.0	-0.06592	0.34241	
3455.0	0.0	-0.04834	0.34241	
3456.0	0.0	-0.039	0.33691	
3457.0	0.0	-0.02142	0.32666	
3458.0	0.0	-0.01318	0.32318	
3459.0	0.0	0.00256	0.32446	
3460.0	0.0	0.00989	0.32043	
3461.0	0.0	0.02454	0.32758	
3462.0	0.0	0.0304	0.30386	
3463.0	0.0	0.04376	0.30212	
3464.0	0.0	0.04871	0.30359	
3465.0	0.0	0.06061	0.28455	
3466.0	0.0	0.06445	0.27979	
3467.0	0.0	0.07544	0.27649	
3468.0	0.0	0.07874	0.26367	
3469.0	0.0	0.08981	0.26111	
3470.0	0.0	0.09375	0.25305	
3471.0	0.0	0.1062	0.25305	
3472.0	0.0	0.11041	0.24921	
3473.0	0.0	0.12195	0.24353	
3474.0	0.0	0.12671	0.23749	
3475.0	0.0	0.13953	0.24152	
3476.0	0.0	0.14502	0.23053	
3477.0	0.0	0.1582	0.24207	
3478.0	0.0	0.1626	0.2347	
3479.0	0.0	0.17596	0.22449	
3480.0	0.0	0.17981	0.23126	
3481.0	0.0	0.19189	0.2254	
3482.0	0.0	0.19592	0.21854	
3483.0	0.0	0.20764	0.22083	
3484.0	0.0	0.21204	0.21716	
3485.0	0.0	0.22339	0.21808	
3486.0	0.0	0.22668	0.20581	
3487.0	0.0	0.23767	0.21387	
3488.0	0.0	0.23987	0.21387	
3489.0	0.0	0.24994	0.22339	
3490.0	0.0	0.25269	0.22266	
3491.0	0.0	0.26331	0.23016	
3492.0	0.0	0.26898	0.22632	
3493.0	0.0	0.28564	0.23676	
3494.0	0.0	0.2981	0.23749	
3495.0	0.0	0.32172	0.25122	
3496.0	0.0	0.33856	0.26239	
3497.0	0.0	0.36383	0.28326	
3498.0	0.0	0.37939	0.3457	
3499.0	0.0	0.40063	0.42297	
3500.0	0.0	0.41125	0.49832	
3501.0	0.0	0.42627	0.55939	
3502.0	0.0	0.43176	0.62073	
3503.0	0.0	0.44275	0.67181	
3504.0	0.0	0.4455	0.7002	
3505.0	0.0	0.4541	0.72748	
3506.0	0.0	0.45117	0.74817	
3507.0	0.0	0.45538	0.7467	
3508.0	0.0	0.44843	0.73334	
3509.0	0.0	0.44678	0.71686	
3510.0	0.0	0.43506	0.68756	
3511.0	0.0	0.43066	0.65826	
3512.0	0.0	0.41528	0.62238	
3513.0	0.0	0.40613	0.58301	
3514.0	0.0	0.38763	0.54401	
3515.0	0.0	0.37573	0.50317	
3516.0	0.0	0.35577	0.4519	
3517.0	0.0	0.34369	0.39844	
3518.0	0.0	0.32373	0.35596	
3519.0	0.0	0.31256	0.30194	
3520.0	0.0	0.29517	0.2569	
3521.0	0.0	0.28839	0.21094	
3522.0	0.0	0.27539	0.16095	
3523.0	0.0	0.27246	0.11591	
3524.0	0.0	0.26294	0.06848	
3525.0	0.0	0.26202	0.04028	
3526.0	0.0	0.25433	0.01282	
3527.0	0.0	0.25598	-0.00732	
3528.0	0.0	0.2514	-0.0271	
3529.0	0.0	0.25818	-0.04047	
3530.0	0.0	0.25928	-0.06079	
3531.0	0.0	0.27026	-0.07233	
3532.0	0.0	0.27319	-0.08716	
3533.0	0.0	0.28436	-0.09796	
3534.0	0.0	0.28839	-0.11792	
3535.0	0.0	0.30011	-0.12003	
3536.0	0.0	0.30487	-0.1322	
3537.0	0.0	0.31787	-0.1442	
3538.0	0.0	0.32227	-0.15894	
3539.0	0.0	0.3349	-0.16937	
3540.0	0.0	0.33911	-0.16974	
3541.0	0.0	0.35248	-0.17413	
3542.0	0.0	0.3576	-0.18036	
3543.0	0.0	0.37061	-0.18677	
3544.0	0.0	0.37683	-0.19592	
3545.0	0.0	0.39111	-0.1875	
3546.0	0.0	0.39697	-0.17688	
3547.0	0.0	0.41125	-0.17569	
3548.0	0.0	0.41785	-0.1712	
3549.0	0.0	0.43213	-0.16425	
3550.0	0.0	0.43835	-0.15253	
3551.0	0.0	0.45209	-0.13989	
3552.0	0.0	0.4574	-0.14722	
3553.0	0.0	0.46948	-0.14301	
3554.0	0.0	0.47113	-0.14392	
3555.0	0.0	0.48047	-0.14062	
3556.0	0.0	0.48157	-0.13623	
3557.0	0.0	0.49146	-0.13037	
3558.0	0.0	0.49329	-0.11664	
3559.0	0.0	0.50317	-0.11792	
3560.0	0.0	0.50647	-0.11334	
3561.0	0.0	0.51819	-0.09375	
3562.0	0.0	0.52295	-0.08752	
3563.0	0.0	0.53577	-0.09027	
3564.0	0.0	0.53943	-0.08112	
3565.0	0.0	0.55115	-0.06189	
3566.0	0.0	0.55371	-0.06006	
3567.0	0.0	0.5625	-0.03809	
3568.0	0.0	0.5625	-0.02985	
3569.0	0.0	0.56982	-0.00806	
3570.0	0.0	0.56854	0.02032	
3571.0	0.0	0.57568	0.04193	
3572.0	0.0	0.57532	0.0639	
3573.0	0.0	0.58246	0.08551	
3574.0	0.0	0.58118	0.09229	
3575.0	0.0	0.5874	0.12067	
3576.0	0.0	0.58484	0.12817	
3577.0	0.0	0.5907	0.14044	
3578.0	0.0	0.58667	0.14886	
3579.0	0.0	0.5907	0.16846	
3580.0	0.0	0.58521	0.17468	
3581.0	0.0	0.58887	0.18677	
3582.0	0.0	0.58447	0.19391	
3583.0	0.0	0.5885	0.20801	
3584.0	0.0	0.58521	0.21661	
3585.0	0.0	0.59033	0.22614	
3586.0	0.0	0.5874	0.2287	
3587.0	0.0	0.5929	0.23547	
3588.0	0.0	0.59033	0.23163	
3589.0	0.0	0.59509	0.23749	
3590.0	0.0	0.59106	0.23602	
3591.0	0.0	0.59564	0.24005	
3592.0	0.0	0.5907	0.23438	
3593.0	0.0	0.59473	0.23346	
3594.0	0.0	0.58997	0.22119	
3595.0	0.0	0.5929	0.21442	
3596.0	0.0	0.58813	0.19949	
3597.0	0.0	0.59143	0.18933	
3598.0	0.0	0.58704	0.17395	
3599.0	0.0	0.5907	0.15527	
3600.0	0.0	0.58704	0.13605	
3601.0	0.0	0.59253	0.12469	
3602.0	0.0	0.58813	0.0921	
3603.0	0.0	0.59271	0.08057	
3604.0	0.0	0.58905	0.06024	
3605.0	0.0	0.59583	0.04449	
3606.0	0.0	0.59418	0.02014	
3607.0	0.0	0.60132	0.01007	
3608.0	0.0	0.59857	-0.00806	
3609.0	0.0	0.60132	-0.03223	
3610.0	0.0	0.59546	-0.05676	
3611.0	0.0	0.59619	-0.05658	
3612.0	0.0	0.58923	-0.07727	
3613.0	0.0	0.59033	-0.09512	
3614.0	0.0	0.58301	-0.11856	
3615.0	0.0	0.58539	-0.13651	
3616.0	0.0	0.57715	-0.15244	
3617.0	0.0	0.57568	-0.17432	
3618.0	0.0	0.56561	-0.19189	
3619.0	0.0	0.5614	-0.22394	
3620.0	0.0	0.54675	-0.24225	
3621.0	0.0	0.53851	-0.27393	
3622.0	0.0	0.52039	-0.30487	
3623.0	0.0	0.51031	-0.32666	
3624.0	0.0	0.49072	-0.34662	
3625.0	0.0	0.47827	-0.36346	
3626.0	0.0	0.45593	-0.38406	
3627.0	0.0	0.44055	-0.38928	
3628.0	0.0	0.41693	-0.39368	
3629.0	0.0	0.40045	-0.40833	
3630.0	0.0	0.37427	-0.41016	
3631.0	0.0	0.35559	-0.41437	
3632.0	0.0	0.32684	-0.4183	
3633.0	0.0	0.30359	-0.43021	
3634.0	0.0	0.27283	-0.43341	
3635.0	0.0	0.24756	-0.44504	
3636.0	0.0	0.21588	-0.45978	
3637.0	0.0	0.19025	-0.47113	
3638.0	0.0	0.15857	-0.48756	
3639.0	0.0	0.13458	-0.50409	
3640.0	0.0	0.104	-0.52258	
3641.0	0.0	0.08185	-0.53174	
3642.0	0.0	0.05347	-0.54414	
3643.0	0.0	0.03333	-0.56227	
3644.0	0.0	0.00403	-0.57385	
3645.0	0.0	-0.0174	-0.57715	
3646.0	0.0	-0.04614	-0.59821	
3647.0	0.0	-0.06665	-0.59619	
3648.0	0.0	-0.09375	-0.60168	
3649.0	0.0	-0.11261	-0.59029	
3650.0	0.0	-0.13953	-0.59729	
3651.0	0.0	-0.15765	-0.5918	
3652.0	0.0	-0.18457	-0.59143	
3653.0	0.0	-0.20361	-0.57751	
3654.0	0.0	-0.23035	-0.56763	
3655.0	0.0	-0.24976	-0.55719	
3656.0	0.0	-0.27686	-0.54401	
3657.0	0.0	-0.29681	-0.51883	
3658.0	0.0	-0.32318	-0.50244	
3659.0	0.0	-0.34204	-0.47736	
3660.0	0.0	-0.36823	-0.45795	
3661.0	0.0	-0.38672	-0.43167	
3662.0	0.0	-0.41254	-0.41821	
3663.0	0.0	-0.43048	-0.38686	
3664.0	0.0	-0.4552	-0.36063	
3665.0	0.0	-0.47223	-0.33856	
3666.0	0.0	-0.49603	-0.32098	
3667.0	0.0	-0.5127	-0.30322	
3668.0	0.0	-0.5354	-0.27933	
3669.0	0.0	-0.55115	-0.25653	
3670.0	0.0	-0.57312	-0.23291	
3671.0	0.0	-0.58759	-0.2157	
3672.0	0.0	-0.60919	-0.20654	
3673.0	0.0	-0.62402	-0.18585	
3674.0	0.0	-0.64581	-0.16168	
3675.0	0.0	-0.659	-0.1496	
3676.0	0.0	-0.67841	-0.13934	
3677.0	0.0	-0.69067	-0.12158	
3678.0	0.0	-0.70953	-0.12085	
3679.0	0.0	-0.72011	-0.10675	
3680.0	0.0	-0.73819	-0.08258	
3681.0	0.0	-0.74835	-0.078	
3682.0	0.0	-0.76593	-0.07672	
3683.0	0.0	-0.77618	-0.06299	
3684.0	0.0	-0.79559	-0.05603	
3685.0	0.0	-0.81024	-0.02728	
3686.0	0.0	-0.83643	-0.0368	
3687.0	0.0	-0.86055	-0.02316	
3688.0	0.0	-0.89621	-0.00659	
3689.0	0.0	-0.92999	-0.00677	
3690.0	0.0	-0.96277	-0.00128	
3691.0	0.0	-0.99298	0.02637	
3692.0	0.0	-1.02136	0.03415	
3693.0	0.0	-1.04604	0.03973	
3694.0	0.0	-1.07199	0.04834	
3695.0	0.0	-1.09218	0.06848	
3696.0	0.0	-1.11511	0.07599	
3697.0	0.0	-1.13379	0.09521	
3698.0	0.0	-1.15462	0.11298	
3699.0	0.0	-1.17023	0.12341	
3700.0	0.0	-1.18826	0.15088	
3701.0	0.0	-1.20021	0.15289	
3702.0	0.0	-1.21646	0.16736	
3703.0	0.0	-1.22452	0.18604	
3704.0	0.0	-1.23825	0.18457	
3705.0	0.0	-1.2442	0.20453	
3706.0	0.0	-1.25784	0.23035	
3707.0	0.0	-1.26315	0.25049	
3708.0	0.0	-1.27551	0.26788	
3709.0	0.0	-1.27945	0.28821	
3710.0	0.0	-1.29048	0.31732	
3711.0	0.0	-1.2919	0.33545	
3712.0	0.0	-1.30133	0.34515	
3713.0	0.0	-1.3017	0.32538	
3714.0	0.0	-1.31108	0.35376	
3715.0	0.0	-1.31149	0.36548	
3716.0	0.0	-1.32074	0.36932	
3717.0	0.0	-1.32243	0.35431	
3718.0	0.0	-1.33186	0.39386	
3719.0	0.0	-1.33493	0.38928	
3720.0	0.0	-1.34454	0.40173	
3721.0	0.0	-1.34711	0.41309	
3722.0	0.0	-1.35548	0.41968	
3723.0	0.0	-1.35635	0.43579	
3724.0	0.0	-1.36377	0.44312	
3725.0	0.0	-1.36317	0.44421	
3726.0	0.0	-1.37027	0.46344	
3727.0	0.0	-1.37009	0.47333	
3728.0	0.0	-1.37741	0.46179	
3729.0	0.0	-1.3775	0.47534	
3730.0	0.0	-1.38455	0.47223	
3731.0	0.0	-1.3851	0.48029	
3732.0	0.0	-1.39151	0.46783	
3733.0	0.0	-1.39211	0.48743	
3734.0	0.0	-1.39819	0.4845	
3735.0	0.0	-1.39719	0.48944	
3736.0	0.0	-1.40318	0.49567	
3737.0	0.0	-1.40089	0.49658	
3738.0	0.0	-1.40565	0.49365	
3739.0	0.0	-1.40323	0.50665	
3740.0	0.0	-1.40799	0.48853	
3741.0	0.0	-1.4046	0.5094	
3742.0	0.0	-1.40845	0.51141	
3743.0	0.0	-1.40327	0.52313	
3744.0	0.0	-1.4062	0.51343	
3745.0	0.0	-1.39989	0.52148	
3746.0	0.0	-1.40163	0.51672	
3747.0	0.0	-1.39188	0.51581	
3748.0	0.0	-1.3894	0.5257	
3749.0	0.0	-1.37636	0.53027	
3750.0	0.0	-1.37123	0.52698	
3751.0	0.0	-1.35654	0.52753	
3752.0	0.0	-1.34953	0.53265	
3753.0	0.0	-1.33342	0.53723	
3754.0	0.0	-1.32564	0.55005	
3755.0	0.0	-1.31012	0.55756	
3756.0	0.0	-1.30211	0.55334	
3757.0	0.0	-1.28448	0.56818	
3758.0	0.0	-1.27432	0.56836	
3759.0	0.0	-1.25436	0.57715	
3760.0	0.0	-1.24246	0.57449	
3761.0	0.0	-1.22223	0.58356	
3762.0	0.0	-1.20959	0.58411	
3763.0	0.0	-1.18909	0.58612	
3764.0	0.0	-1.17609	0.57642	
3765.0	0.0	-1.1548	0.59985	
3766.0	0.0	-1.14203	0.5918	
3767.0	0.0	-1.12093	0.59912	
3768.0	0.0	-1.1082	0.59528	
3769.0	0.0	-1.08765	0.60864	
3770.0	0.0	-1.07501	0.60809	
3771.0	0.0	-1.0535	0.60828	
3772.0	0.0	-1.03944	0.61084	
3773.0	0.0	-1.01733	0.61981	
3774.0	0.0	-1.00287	0.6167	
3775.0	0.0	-0.97916	0.61835	
3776.0	0.0	-0.96295	0.61716	
3777.0	0.0	-0.93823	0.60223	
3778.0	0.0	-0.92084	0.61029	
3779.0	0.0	-0.89639	0.61047	
3780.0	0.0	-0.87946	0.60773	
3781.0	0.0	-0.85492	0.60626	
3782.0	0.0	-0.83679	0.60809	
3783.0	0.0	-0.81042	0.60736	
3784.0	0.0	-0.79047	0.60699	
3785.0	0.0	-0.76172	0.60736	
3786.0	0.0	-0.73975	0.60535	
3787.0	0.0	-0.70953	0.6004	
3788.0	0.0	-0.68619	0.5929	
3789.0	0.0	-0.65552	0.59839	
3790.0	0.0	-0.63135	0.58887	
3791.0	0.0	-0.59894	0.5929	
3792.0	0.0	-0.57367	0.59015	
3793.0	0.0	-0.54126	0.59546	
3794.0	0.0	-0.51581	0.59381	
3795.0	0.0	-0.48523	0.58722	
3796.0	0.0	-0.46143	0.58118	
3797.0	0.0	-0.4314	0.57587	
3798.0	0.0	-0.40906	0.56635	
3799.0	0.0	-0.37976	0.56195	
3800.0	0.0	-0.3576	0.54291	
3801.0	0.0	-0.32776	0.53613	
3802.0	0.0	-0.30524	0.51947	
3803.0	0.0	-0.27466	0.52478	
3804.0	0.0	-0.25049	0.51526	
3805.0	0.0	-0.21826	0.51324	
3806.0	0.0	-0.19189	0.51068	
3807.0	0.0	-0.15784	0.51654	
3808.0	0.0	-0.13	0.50372	
3809.0	0.0	-0.09521	0.49251	
3810.0	0.0	-0.0672	0.47955	
3811.0	0.0	-0.03204	0.48596	
3812.0	0.0	-0.00256	0.46472	
3813.0	0.0	0.03534	0.47314	
3814.0	0.0	0.0672	0.46582	
3815.0	0.0	0.1084	0.46161	
3816.0	0.0	0.14447	0.43945	
3817.0	0.0	0.1897	0.44824	
3818.0	0.0	0.22998	0.42801	
3819.0	0.0	0.2796	0.42426	
3820.0	0.0	0.323	0.39276	
3821.0	0.0	0.37537	0.38118	
3822.0	0.0	0.42334	0.35312	
3823.0	0.0	0.47974	0.33252	
3824.0	0.0	0.53064	0.3013	
3825.0	0.0	0.58704	0.27979	
3826.0	0.0	0.63739	0.2536	
3827.0	0.0	0.68628	0.2243	
3828.0	0.0	0.73096	0.20215	
3829.0	0.0	0.77362	0.16919	
3830.0	0.0	0.81226	0.13458	
3831.0	0.0	0.85034	0.11188	
3832.0	0.0	0.8833	0.07489	
3833.0	0.0	0.91772	0.06134	
3834.0	0.0	0.94592	0.0163	
3835.0	0.0	0.97668	-0.00623	
3836.0	0.0	1.00122	-0.03992	
3837.0	0.0	1.02924	-0.06409	
3838.0	0.0	1.04883	-0.09192	
3839.0	0.0	1.07483	-0.12268	
3840.0	0.0	1.09131	-0.14319	
3841.0	0.0	1.11328	-0.16241	
3842.0	0.0	1.1272	-0.18768	
3843.0	0.0	1.14624	-0.20526	
3844.0	0.0	1.15649	-0.22897	
3845.0	0.0	1.17297	-0.24957	
3846.0	0.0	1.17993	-0.27255	
3847.0	0.0	1.19531	-0.29004	
3848.0	0.0	1.20154	-0.31311	
3849.0	0.0	1.21509	-0.32867	
3850.0	0.0	1.22021	-0.35518	
3851.0	0.0	1.23193	-0.37518	
3852.0	0.0	1.23633	-0.39423	
3853.0	0.0	1.24731	-0.40778	
3854.0	0.0	1.24988	-0.42618	
3855.0	0.0	1.25977	-0.43726	
3856.0	0.0	1.2616	-0.44971	
3857.0	0.0	1.27222	-0.45959	
3858.0	0.0	1.27441	-0.4715	
3859.0	0.0	1.28613	-0.47205	
3860.0	0.0	1.28796	-0.48047	
3861.0	0.0	1.29932	-0.48651	
3862.0	0.0	1.3017	-0.49347	
3863.0	0.0	1.31195	-0.4986	
3864.0	0.0	1.31323	-0.51215	
3865.0	0.0	1.3244	-0.51077	
3866.0	0.0	1.32971	-0.51627	
3867.0	0.0	1.34106	-0.51196	
3868.0	0.0	1.34473	-0.5191	
3869.0	0.0	1.35388	-0.51581	
3870.0	0.0	1.35571	-0.51691	
3871.0	0.0	1.36597	-0.50519	
3872.0	0.0	1.36725	-0.50272	
3873.0	0.0	1.37659	-0.48921	
3874.0	0.0	1.37732	-0.48816	
3875.0	0.0	1.38428	-0.48798	
3876.0	0.0	1.38464	-0.50208	
3877.0	0.0	1.39233	-0.51434	
3878.0	0.0	1.3916	-0.52808	
3879.0	0.0	1.39856	-0.53632	
3880.0	0.0	1.39709	-0.54803	
3881.0	0.0	1.40332	-0.55719	
3882.0	0.0	1.39966	-0.56744	
3883.0	0.0	1.40552	-0.57129	
3884.0	0.0	1.40222	-0.57422	
3885.0	0.0	1.40808	-0.5755	
3886.0	0.0	1.40479	-0.57111	
3887.0	0.0	1.41174	-0.57001	
3888.0	0.0	1.40881	-0.58191	
3889.0	0.0	1.41357	-0.58145	
3890.0	0.0	1.41028	-0.58383	
3891.0	0.0	1.41504	-0.58063	
3892.0	0.0	1.41138	-0.58154	
3893.0	0.0	1.4176	-0.57367	
3894.0	0.0	1.41431	-0.56396	
3895.0	0.0	1.42126	-0.54932	
3896.0	0.0	1.41833	-0.53943	
3897.0	0.0	1.42236	-0.51892	
3898.0	0.0	1.4165	-0.5072	
3899.0	0.0	1.4198	-0.49219	
3900.0	0.0	1.41138	-0.48688	
3901.0	0.0	1.41357	-0.47498	
3902.0	0.0	1.40552	-0.47003	
3903.0	0.0	1.40753	-0.466	
3904.0	0.0	1.39893	-0.46225	
3905.0	0.0	1.39728	-0.45776	
3906.0	0.0	1.38721	-0.45978	
3907.0	0.0	1.38428	-0.46024	
3908.0	0.0	1.37073	-0.46124	
3909.0	0.0	1.36633	-0.45996	
3910.0	0.0	1.35242	-0.46655	
3911.0	0.0	1.34619	-0.47168	
3912.0	0.0	1.33118	-0.48779	
3913.0	0.0	1.32458	-0.49731	
3914.0	0.0	1.30957	-0.51334	
3915.0	0.0	1.30408	-0.52451	
3916.0	0.0	1.29016	-0.54163	
3917.0	0.0	1.2854	-0.54767	
3918.0	0.0	1.27258	-0.56094	
3919.0	0.0	1.26819	-0.56799	
3920.0	0.0	1.25757	-0.58044	
3921.0	0.0	1.25464	-0.58594	
3922.0	0.0	1.24402	-0.59601	
3923.0	0.0	1.24146	-0.60049	
3924.0	0.0	1.23157	-0.60791	
3925.0	0.0	1.22937	-0.6059	
3926.0	0.0	1.21912	-0.6102	
3927.0	0.0	1.21875	-0.60901	
3928.0	0.0	1.20996	-0.61084	
3929.0	0.0	1.20996	-0.6015	
3930.0	0.0	1.20117	-0.59949	
3931.0	0.0	1.20117	-0.59454	
3932.0	0.0	1.19348	-0.5896	
3933.0	0.0	1.19385	-0.58447	
3934.0	0.0	1.18579	-0.57733	
3935.0	0.0	1.18762	-0.57129	
3936.0	0.0	1.17993	-0.56218	
3937.0	0.0	1.18066	-0.54987	
3938.0	0.0	1.17279	-0.54373	
3939.0	0.0	1.17261	-0.53027	
3940.0	0.0	1.16565	-0.52368	
3941.0	0.0	1.16675	-0.51581	
3942.0	0.0	1.15887	-0.51489	
3943.0	0.0	1.15869	-0.50757	
3944.0	0.0	1.1499	-0.51031	
3945.0	0.0	1.14844	-0.49878	
3946.0	0.0	1.13855	-0.49823	
3947.0	0.0	1.13617	-0.48834	
3948.0	0.0	1.12555	-0.48669	
3949.0	0.0	1.12244	-0.47662	
3950.0	0.0	1.112	-0.47314	
3951.0	0.0	1.10815	-0.46033	
3952.0	0.0	1.09717	-0.4552	
3953.0	0.0	1.09515	-0.44568	
3954.0	0.0	1.08325	-0.43982	
3955.0	0.0	1.07959	-0.42554	
3956.0	0.0	1.06787	-0.42041	
3957.0	0.0	1.06421	-0.40796	
3958.0	0.0	1.05286	-0.39771	
3959.0	0.0	1.05139	-0.38232	
3960.0	0.0	1.04297	-0.37802	
3961.0	0.0	1.0415	-0.35925	
3962.0	0.0	1.03015	-0.349	
3963.0	0.0	1.02759	-0.33325	
3964.0	0.0	1.0166	-0.32263	
3965.0	0.0	1.01422	-0.30634	
3966.0	0.0	1.00342	-0.29956	
3967.0	0.0	1.00232	-0.28125	
3968.0	0.0	0.99316	-0.27466	
3969.0	0.0	0.9939	-0.25323	
3970.0	0.0	0.98511	-0.24042	
3971.0	0.0	0.98547	-0.22247	
3972.0	0.0	0.97778	-0.2124	
3973.0	0.0	0.97797	-0.18878	
3974.0	0.0	0.96899	-0.17963	
3975.0	0.0	0.96936	-0.1604	
3976.0	0.0	0.96039	-0.14539	
3977.0	0.0	0.95984	-0.12781	
3978.0	0.0	0.95178	-0.11334	
3979.0	0.0	0.95251	-0.10217	
3980.0	0.0	0.94482	-0.09576	
3981.0	0.0	0.94556	-0.06592	
3982.0	0.0	0.93823	-0.0683	
3983.0	0.0	0.93933	-0.05182	
3984.0	0.0	0.93201	-0.04376	
3985.0	0.0	0.93384	-0.03369	
3986.0	0.0	0.9267	-0.02032	
3987.0	0.0	0.92908	-0.0011	
3988.0	0.0	0.9223	-0.00385	
3989.0	0.0	0.92303	0.00861	
3990.0	0.0	0.91516	0.01556	
3991.0	0.0	0.91553	0.0423	
3992.0	0.0	0.9071	0.03516	
3993.0	0.0	0.9071	0.04651	
3994.0	0.0	0.89941	0.05969	
3995.0	0.0	0.90088	0.06006	
3996.0	0.0	0.89355	0.07581	
3997.0	0.0	0.8952	0.07489	
3998.0	0.0	0.8877	0.07343	
3999.0	0.0	0.88879	0.08313	
4000.0	0.0	0.88074	0.08405	
4001.0	0.0	0.88184	0.09375	
4002.0	0.0	0.87396	0.09814	
4003.0	0.0	0.87451	0.10913	
4004.0	0.0	0.86572	0.11572	
4005.0	0.0	0.86462	0.11884	
4006.0	0.0	0.85657	0.12268	
4007.0	0.0	0.85474	0.14722	
4008.0	0.0	0.84558	0.15308	
4009.0	0.0	0.84338	0.15692	
4010.0	0.0	0.83423	0.15491	
4011.0	0.0	0.8324	0.17505	
4012.0	0.0	0.82233	0.16644	
4013.0	0.0	0.82196	0.17395	
4014.0	0.0	0.81262	0.17706	
4015.0	0.0	0.81152	0.18713	
4016.0	0.0	0.80237	0.18777	
4017.0	0.0	0.80072	0.20837	
4018.0	0.0	0.79138	0.2005	
4019.0	0.0	0.78992	0.20764	
4020.0	0.0	0.78076	0.20801	
4021.0	0.0	0.77966	0.22797	
4022.0	0.0	0.77161	0.22247	
4023.0	0.0	0.77179	0.2347	
4024.0	0.0	0.76428	0.23309	
4025.0	0.0	0.76428	0.24097	
4026.0	0.0	0.75659	0.24353	
4027.0	0.0	0.75732	0.2558	
4028.0	0.0	0.74963	0.25195	
4029.0	0.0	0.75	0.25928	
4030.0	0.0	0.74231	0.26093	
4031.0	0.0	0.74304	0.26825	
4032.0	0.0	0.73627	0.27869	
4033.0	0.0	0.73682	0.28729	
4034.0	0.0	0.73022	0.29187	
4035.0	0.0	0.73096	0.30139	
4036.0	0.0	0.72363	0.30176	
4037.0	0.0	0.7251	0.31	
4038.0	0.0	0.71777	0.31183	
4039.0	0.0	0.71924	0.32153	
4040.0	0.0	0.71118	0.3219	
4041.0	0.0	0.71191	0.32281	
4042.0	0.0	0.70386	0.32153	
4043.0	0.0	0.70349	0.32721	
4044.0	0.0	0.69507	0.3252	
4045.0	0.0	0.69434	0.32812	
4046.0	0.0	0.685	0.32721	
4047.0	0.0	0.68445	0.33124	
4048.0	0.0	0.67603	0.33014	
4049.0	0.0	0.67603	0.3327	
4050.0	0.0	0.66815	0.33105	
4051.0	0.0	0.66797	0.33545	
4052.0	0.0	0.65918	0.3338	
4053.0	0.0	0.6579	0.3371	
4054.0	0.0	0.65057	0.33398	
4055.0	0.0	0.65131	0.34149	
4056.0	0.0	0.64526	0.33636	
4057.0	0.0	0.64929	0.34259	
4058.0	0.0	0.64307	0.34094	
4059.0	0.0	0.6438	0.34625	
4060.0	0.0	0.63647	0.3457	
4061.0	0.0	0.63721	0.34918	
4062.0	0.0	0.62988	0.34698	
4063.0	0.0	0.63062	0.34991	
4064.0	0.0	0.62494	0.34735	
4065.0	0.0	0.62769	0.35504	
4066.0	0.0	0.62329	0.35449	
4067.0	0.0	0.62695	0.36145	
4068.0	0.0	0.62366	0.36035	
4069.0	0.0	0.62842	0.37207	
4070.0	0.0	0.62457	0.37628	
4071.0	0.0	0.62988	0.37848	
4072.0	0.0	0.62494	0.38232	
4073.0	0.0	0.62915	0.39313	
4074.0	0.0	0.62402	0.39111	
4075.0	0.0	0.62769	0.39716	
4076.0	0.0	0.62292	0.39697	
4077.0	0.0	0.62622	0.40649	
4078.0	0.0	0.62219	0.40723	
4079.0	0.0	0.62494	0.40961	
4080.0	0.0	0.61963	0.41199	
4081.0	0.0	0.62311	0.40814	
4082.0	0.0	0.61816	0.40668	
4083.0	0.0	0.62036	0.41675	
4084.0	0.0	0.61597	0.41345	
4085.0	0.0	0.61853	0.414	
4086.0	0.0	0.61304	0.41602	
4087.0	0.0	0.61615	0.41986	
4088.0	0.0	0.61047	0.42078	
4089.0	0.0	0.61267	0.42499	
4090.0	0.0	0.60608	0.41821	
4091.0	0.0	0.60791	0.42938	
4092.0	0.0	0.60223	0.42609	
4093.0	0.0	0.60461	0.4313	
4094.0	0.0	0.59839	0.4248	
4095.0	0.0	0.60095	0.42755	
4096.0	0.0	0.59436	0.43451	
4097.0	0.0	0.59656	0.43762	
4098.0	0.0	0.58997	0.43982	
4099.0	0.0	0.59143	0.44513	
4100.0	0.0	0.58411	0.44366	
4101.0	0.0	0.58521	0.45209	
4102.0	0.0	0.57825	0.45172	
4103.0	0.0	0.57806	0.45584	
4104.0	0.0	0.56982	0.45575	
4105.0	0.0	0.56955	0.46289	
4106.0	0.0	0.56104	0.46106	
4107.0	0.0	0.55957	0.4704	
4108.0	0.0	0.55078	0.4649	
4109.0	0.0	0.54895	0.4801	
4110.0	0.0	0.54016	0.47607	
4111.0	0.0	0.5387	0.47791	
4112.0	0.0	0.52991	0.47736	
4113.0	0.0	0.52734	0.48962	
4114.0	0.0	0.51782	0.48285	
4115.0	0.0	0.51562	0.492	
4116.0	0.0	0.50574	0.49512	
4117.0	0.0	0.50317	0.49805	
4118.0	0.0	0.49329	0.50015	
4119.0	0.0	0.49219	0.50537	
4120.0	0.0	0.4834	0.50244	
4121.0	0.0	0.48193	0.50409	
4122.0	0.0	0.47351	0.51105	
4123.0	0.0	0.47278	0.5127	
4124.0	0.0	0.46362	0.51196	
4125.0	0.0	0.46252	0.5159	
4126.0	0.0	0.45337	0.51595	
4127.0	0.0	0.45227	0.52734	
4128.0	0.0	0.44312	0.52753	
4129.0	0.0	0.44257	0.53137	
4130.0	0.0	0.43359	0.53009	
4131.0	0.0	0.43213	0.53119	
4132.0	0.0	0.42371	0.52441	
4133.0	0.0	0.42297	0.53522	
4134.0	0.0	0.41382	0.5332	
4135.0	0.0	0.414	0.53064	
4136.0	0.0	0.4054	0.52368	
4137.0	0.0	0.40521	0.53009	
4138.0	0.0	0.39771	0.52917	
4139.0	0.0	0.39734	0.52606	
4140.0	0.0	0.3891	0.53064	
4141.0	0.0	0.38837	0.53485	
4142.0	0.0	0.38031	0.52954	
4143.0	0.0	0.37939	0.53485	
4144.0	0.0	0.37097	0.53192	
4145.0	0.0	0.37079	0.52386	
4146.0	0.0	0.36255	0.52698	
4147.0	0.0	0.36301	0.53284	
4148.0	0.0	0.35522	0.52414	
4149.0	0.0	0.35596	0.52753	
4150.0	0.0	0.34717	0.5224	
4151.0	0.0	0.34644	0.52972	
4152.0	0.0	0.33801	0.52423	
4153.0	0.0	0.33838	0.52844	
4154.0	0.0	0.33179	0.52863	
4155.0	0.0	0.33325	0.52766	
4156.0	0.0	0.32593	0.52295	
4157.0	0.0	0.3252	0.51837	
4158.0	0.0	0.31732	0.52551	
4159.0	0.0	0.31641	0.52148	
4160.0	0.0	0.3089	0.51196	
4161.0	0.0	0.30872	0.52039	
4162.0	0.0	0.30322	0.51965	
4163.0	0.0	0.30615	0.52002	
4164.0	0.0	0.30121	0.51855	
4165.0	0.0	0.30579	0.5213	
4166.0	0.0	0.30212	0.52313	
4167.0	0.0	0.30688	0.53046	
4168.0	0.0	0.30322	0.53467	
4169.0	0.0	0.30688	0.54364	
4170.0	0.0	0.30212	0.5452	
4171.0	0.0	0.30615	0.5473	
4172.0	0.0	0.30139	0.53668	
4173.0	0.0	0.30615	0.54675	
4174.0	0.0	0.30194	0.54657	
4175.0	0.0	0.30725	0.54822	
4176.0	0.0	0.30414	0.54016	
4177.0	0.0	0.30981	0.54437	
4178.0	0.0	0.30615	0.5343	
4179.0	0.0	0.31128	0.5387	
4180.0	0.0	0.30798	0.52716	
4181.0	0.0	0.31348	0.52551	
4182.0	0.0	0.31036	0.52222	
4183.0	0.0	0.31567	0.52478	
4184.0	0.0	0.31274	0.51929	
4185.0	0.0	0.31714	0.52222	
4186.0	0.0	0.31311	0.51947	
4187.0	0.0	0.31787	0.52808	
4188.0	0.0	0.31348	0.51801	
4189.0	0.0	0.31714	0.52588	
4190.0	0.0	0.31384	0.52295	
4191.0	0.0	0.31824	0.52698	
4192.0	0.0	0.31567	0.52148	
4193.0	0.0	0.32117	0.51984	
4194.0	0.0	0.31897	0.51929	
4195.0	0.0	0.3252	0.5159	
4196.0	0.0	0.323	0.50574	
4197.0	0.0	0.32812	0.51123	
4198.0	0.0	0.3252	0.50665	
4199.0	0.0	0.32922	0.50098	
4200.0	0.0	0.32556	0.4953	
4201.0	0.0	0.32904	0.49823	
4202.0	0.0	0.32465	0.49832	
4203.0	0.0	0.32703	0.50336	
4204.0	0.0	0.32227	0.49933	
4205.0	0.0	0.32373	0.50684	
4206.0	0.0	0.31787	0.49933	
4207.0	0.0	0.3197	0.50793	
4208.0	0.0	0.31329	0.49512	
4209.0	0.0	0.31512	0.50958	
4210.0	0.0	0.30798	0.50262	
4211.0	0.0	0.30981	0.50793	
4212.0	0.0	0.30249	0.50446	
4213.0	0.0	0.30414	0.50098	
4214.0	0.0	0.29736	0.50684	
4215.0	0.0	0.29974	0.5061	
4216.0	0.0	0.29297	0.50006	
4217.0	0.0	0.2948	0.50116	
4218.0	0.0	0.28931	0.50098	
4219.0	0.0	0.29114	0.50702	
4220.0	0.0	0.28564	0.49969	
4221.0	0.0	0.28674	0.5061	
4222.0	0.0	0.28052	0.49548	
4223.0	0.0	0.28235	0.50464	
4224.0	0.0	0.27649	0.4964	
4225.0	0.0	0.27795	0.50262	
4226.0	0.0	0.27155	0.50217	
4227.0	0.0	0.27429	0.5105	
4228.0	0.0	0.26862	0.50684	
4229.0	0.0	0.27155	0.5105	
4230.0	0.0	0.26587	0.50665	
4231.0	0.0	0.26843	0.51123	
4232.0	0.0	0.26385	0.50317	
4233.0	0.0	0.2666	0.505	
4234.0	0.0	0.26184	0.49841	
4235.0	0.0	0.26477	0.51343	
4236.0	0.0	0.26001	0.50409	
4237.0	0.0	0.26257	0.51068	
4238.0	0.0	0.25653	0.50391	
4239.0	0.0	0.25928	0.51434	
4240.0	0.0	0.25305	0.5061	
4241.0	0.0	0.25525	0.51672	
4242.0	0.0	0.24921	0.50958	
4243.0	0.0	0.25122	0.51288	
4244.0	0.0	0.24573	0.50848	
4245.0	0.0	0.24902	0.505	
4246.0	0.0	0.24371	0.50519	
4247.0	0.0	0.24573	0.5116	
4248.0	0.0	0.24042	0.50372	
