# OpenSignals Text File Format. Version 1
# {"00:07:80:4B:29:5A": {"position": 0, "device": "biosignalsplux", "device name": "00:07:80:4B:29:5A", "device connection": "/dev/tty.biosignalsplux-Bluetoot", "sampling rate": 100, "resolution": [16, 16], "firmware version": 776, "comments": "", "keywords": "", "mode": 0, "sync interval": 2, "date": "2022-5-12", "time": "14:3:53.222", "channels": [1, 2], "sensor": ["RESPIRATION", "RESPIRATION"], "label": ["CH1", "CH2"], "column": ["nSeq", "DI", "CH1", "CH2"], "special": [{"SpO2": [80, 40, 5, 4, 3, 3]}, {"SpO2": [80, 40, 5, 4, 3, 3]}, {"SpO2": [80, 40, 5, 4, 3, 3]}, {"SpO2": [80, 40, 5, 4, 3, 3]}, {"SpO2": [80, 40, 5, 4, 3, 3]}, {"SpO2": [80, 40, 5, 4, 3, 3]}, {"SpO2": [80, 40, 5, 4, 3, 3]}, {"SpO2": [80, 40, 5, 4, 3, 3]}], "digital IO": [0, 1], "sleeve color": ["red", ""], "convertedValues": 1}}
# EndOfHeader
0.0	0.0	0.64746	0.3186	
1.0	0.0	0.65149	0.31458	
2.0	0.0	0.65332	0.30469	
3.0	0.0	0.65771	0.29901	
4.0	0.0	0.65771	0.28711	
5.0	0.0	0.66064	0.28491	
6.0	0.0	0.66083	0.27887	
7.0	0.0	0.66357	0.27887	
8.0	0.0	0.66339	0.27356	
9.0	0.0	0.66467	0.26981	
10.0	0.0	0.66321	0.26276	
11.0	0.0	0.66394	0.26733	
12.0	0.0	0.66248	0.25928	
13.0	0.0	0.66431	0.25964	
14.0	0.0	0.66431	0.26001	
15.0	0.0	0.6665	0.26202	
16.0	0.0	0.66614	0.2569	
17.0	0.0	0.6687	0.25323	
18.0	0.0	0.66833	0.25214	
19.0	0.0	0.6698	0.25342	
20.0	0.0	0.6687	0.25195	
21.0	0.0	0.67072	0.25415	
22.0	0.0	0.66797	0.25415	
23.0	0.0	0.66833	0.25085	
24.0	0.0	0.6665	0.24554	
25.0	0.0	0.66724	0.24426	
26.0	0.0	0.66449	0.2406	
27.0	0.0	0.66467	0.23236	
28.0	0.0	0.66064	0.22339	
29.0	0.0	0.65955	0.22467	
30.0	0.0	0.65588	0.20654	
31.0	0.0	0.65698	0.21057	
32.0	0.0	0.65698	0.19995	
33.0	0.0	0.66138	0.1853	
34.0	0.0	0.66248	0.17981	
35.0	0.0	0.66504	0.16827	
36.0	0.0	0.66357	0.14777	
37.0	0.0	0.66431	0.13678	
38.0	0.0	0.66211	0.12067	
39.0	0.0	0.66431	0.11682	
40.0	0.0	0.66614	0.08936	
41.0	0.0	0.67236	0.08258	
42.0	0.0	0.67566	0.06409	
43.0	0.0	0.68188	0.04358	
44.0	0.0	0.68408	0.02527	
45.0	0.0	0.69049	0.0011	
46.0	0.0	0.69434	-0.01804	
47.0	0.0	0.70312	-0.02454	
48.0	0.0	0.70972	-0.04999	
49.0	0.0	0.71997	-0.07031	
50.0	0.0	0.73022	-0.12195	
51.0	0.0	0.74542	-0.15967	
52.0	0.0	0.75879	-0.20966	
53.0	0.0	0.7771	-0.25122	
54.0	0.0	0.79285	-0.31238	
55.0	0.0	0.81171	-0.36365	
56.0	0.0	0.83075	-0.42114	
57.0	0.0	0.85291	-0.47058	
58.0	0.0	0.87231	-0.52203	
59.0	0.0	0.89429	-0.56085	
60.0	0.0	0.91296	-0.6026	
61.0	0.0	0.93127	-0.64014	
62.0	0.0	0.94574	-0.67474	
63.0	0.0	0.9613	-0.70789	
64.0	0.0	0.97485	-0.7392	
65.0	0.0	0.9895	-0.77197	
66.0	0.0	1.00342	-0.80493	
67.0	0.0	1.02136	-0.83514	
68.0	0.0	1.03784	-0.86316	
69.0	0.0	1.05542	-0.88765	
70.0	0.0	1.07153	-0.90912	
71.0	0.0	1.08838	-0.92743	
72.0	0.0	1.10303	-0.94821	
73.0	0.0	1.11621	-0.96313	
74.0	0.0	1.12207	-0.98346	
75.0	0.0	1.12427	-0.9982	
76.0	0.0	1.11438	-1.01738	
77.0	0.0	1.0979	-1.02621	
78.0	0.0	1.07117	-1.03857	
79.0	0.0	1.04388	-1.04681	
80.0	0.0	1.01331	-1.05661	
81.0	0.0	0.98511	-1.06462	
82.0	0.0	0.95526	-1.06494	
83.0	0.0	0.92908	-1.06174	
84.0	0.0	0.89905	-1.06906	
85.0	0.0	0.87195	-1.06302	
86.0	0.0	0.84174	-1.06586	
87.0	0.0	0.81445	-1.06888	
88.0	0.0	0.78223	-1.06668	
89.0	0.0	0.75476	-1.07387	
90.0	0.0	0.72784	-1.09634	
91.0	0.0	0.70679	-1.12024	
92.0	0.0	0.68774	-1.14185	
93.0	0.0	0.67529	-1.15942	
94.0	0.0	0.66595	-1.17865	
95.0	0.0	0.66321	-1.18945	
96.0	0.0	0.66211	-1.20547	
97.0	0.0	0.66797	-1.21976	
98.0	0.0	0.67419	-1.23189	
99.0	0.0	0.68628	-1.24695	
100.0	0.0	0.69598	-1.25844	
101.0	0.0	0.70679	-1.26993	
102.0	0.0	0.71411	-1.28265	
103.0	0.0	0.72308	-1.29016	
104.0	0.0	0.72729	-1.30174	
105.0	0.0	0.73407	-1.31277	
106.0	0.0	0.73755	-1.31918	
107.0	0.0	0.74414	-1.32541	
108.0	0.0	0.74615	-1.34166	
109.0	0.0	0.75	-1.34756	
110.0	0.0	0.75037	-1.35626	
111.0	0.0	0.75293	-1.34784	
112.0	0.0	0.75183	-1.32907	
113.0	0.0	0.75037	-1.29611	
114.0	0.0	0.74524	-1.2616	
115.0	0.0	0.74176	-1.21321	
116.0	0.0	0.73425	-1.17096	
117.0	0.0	0.72729	-1.12679	
118.0	0.0	0.71484	-1.09305	
119.0	0.0	0.70203	-1.06201	
120.0	0.0	0.68262	-1.03619	
121.0	0.0	0.66211	-1.01019	
122.0	0.0	0.63574	-0.98538	
123.0	0.0	0.61267	-0.95178	
124.0	0.0	0.58411	-0.9245	
125.0	0.0	0.55518	-0.88948	
126.0	0.0	0.52039	-0.85007	
127.0	0.0	0.48248	-0.7923	
128.0	0.0	0.43762	-0.71667	
129.0	0.0	0.39111	-0.61908	
130.0	0.0	0.33838	-0.50409	
131.0	0.0	0.28125	-0.38416	
132.0	0.0	0.21515	-0.2699	
133.0	0.0	0.14447	-0.1582	
134.0	0.0	0.06482	-0.06299	
135.0	0.0	-0.02087	0.03937	
136.0	0.0	-0.1084	0.12378	
137.0	0.0	-0.1908	0.20563	
138.0	0.0	-0.26807	0.28107	
139.0	0.0	-0.33875	0.32845	
140.0	0.0	-0.40485	0.37628	
141.0	0.0	-0.46321	0.42114	
142.0	0.0	-0.51929	0.44641	
143.0	0.0	-0.56946	0.49072	
144.0	0.0	-0.61926	0.50977	
145.0	0.0	-0.66357	0.5202	
146.0	0.0	-0.70789	0.53156	
147.0	0.0	-0.74561	0.51746	
148.0	0.0	-0.78076	0.51599	
149.0	0.0	-0.81317	0.5235	
150.0	0.0	-0.84558	0.50336	
151.0	0.0	-0.87593	0.50006	
152.0	0.0	-0.90784	0.50098	
153.0	0.0	-0.93686	0.4823	
154.0	0.0	-0.96863	0.47493	
155.0	0.0	-0.99774	0.47644	
156.0	0.0	-1.02576	0.47021	
157.0	0.0	-1.05157	0.45941	
158.0	0.0	-1.0762	0.47974	
159.0	0.0	-1.09708	0.46802	
160.0	0.0	-1.11832	0.47076	
161.0	0.0	-1.13718	0.47644	
162.0	0.0	-1.15714	0.48779	
163.0	0.0	-1.1749	0.49731	
164.0	0.0	-1.19257	0.50757	
165.0	0.0	-1.20895	0.53082	
166.0	0.0	-1.22388	0.53906	
167.0	0.0	-1.23647	0.55261	
168.0	0.0	-1.25116	0.57605	
169.0	0.0	-1.26361	0.59528	
170.0	0.0	-1.27698	0.61523	
171.0	0.0	-1.28824	0.63867	
172.0	0.0	-1.29977	0.65973	
173.0	0.0	-1.3103	0.66943	
174.0	0.0	-1.32014	0.70569	
175.0	0.0	-1.32921	0.73096	
176.0	0.0	-1.33887	0.75494	
177.0	0.0	-1.34715	0.78076	
178.0	0.0	-1.35516	0.81628	
179.0	0.0	-1.35869	0.85803	
180.0	0.0	-1.3569	0.87543	
181.0	0.0	-1.345	0.88239	
182.0	0.0	-1.33109	0.85437	
183.0	0.0	-1.31241	0.79028	
184.0	0.0	-1.29529	0.69781	
185.0	0.0	-1.27258	0.58887	
186.0	0.0	-1.24828	0.45227	
187.0	0.0	-1.21719	0.3338	
188.0	0.0	-1.19376	0.21606	
189.0	0.0	-1.17252	0.1051	
190.0	0.0	-1.16034	0.01117	
191.0	0.0	-1.15485	-0.06573	
192.0	0.0	-1.16235	-0.15472	
193.0	0.0	-1.17343	-0.23639	
194.0	0.0	-1.19	-0.31201	
195.0	0.0	-1.19911	-0.37701	
196.0	0.0	-1.19554	-0.45392	
197.0	0.0	-1.16116	-0.49969	
198.0	0.0	-1.10468	-0.57092	
199.0	0.0	-1.0361	-0.62769	
200.0	0.0	-0.97238	-0.68115	
201.0	0.0	-0.91772	-0.72491	
202.0	0.0	-0.87561	-0.77325	
203.0	0.0	-0.83789	-0.79239	
204.0	0.0	-0.80933	-0.802	
205.0	0.0	-0.7868	-0.78351	
206.0	0.0	-0.77692	-0.75046	
207.0	0.0	-0.77362	-0.69305	
208.0	0.0	-0.77911	-0.63126	
209.0	0.0	-0.78818	-0.55399	
210.0	0.0	-0.80383	-0.505	
211.0	0.0	-0.8172	-0.45758	
212.0	0.0	-0.8345	-0.40823	
213.0	0.0	-0.84998	-0.35696	
214.0	0.0	-0.86444	-0.3045	
215.0	0.0	-0.86719	-0.26056	
216.0	0.0	-0.86261	-0.25378	
217.0	0.0	-0.84045	-0.26953	
218.0	0.0	-0.80621	-0.29663	
219.0	0.0	-0.76318	-0.35468	
220.0	0.0	-0.72656	-0.40732	
221.0	0.0	-0.69543	-0.43689	
222.0	0.0	-0.6698	-0.46188	
223.0	0.0	-0.63977	-0.47186	
224.0	0.0	-0.60736	-0.4693	
225.0	0.0	-0.56689	-0.42041	
226.0	0.0	-0.52386	-0.38242	
227.0	0.0	-0.4704	-0.35559	
228.0	0.0	-0.40796	-0.34479	
229.0	0.0	-0.33472	-0.34204	
230.0	0.0	-0.25928	-0.3446	
231.0	0.0	-0.17963	-0.35742	
232.0	0.0	-0.10254	-0.3772	
233.0	0.0	-0.02527	-0.39349	
234.0	0.0	0.04651	-0.40796	
235.0	0.0	0.11188	-0.39368	
236.0	0.0	0.16589	-0.40466	
237.0	0.0	0.21112	-0.37775	
238.0	0.0	0.24536	-0.35358	
239.0	0.0	0.27063	-0.30688	
240.0	0.0	0.28125	-0.26019	
241.0	0.0	0.27924	-0.19135	
242.0	0.0	0.26385	-0.1442	
243.0	0.0	0.23877	-0.06519	
244.0	0.0	0.20288	0.02545	
245.0	0.0	0.16223	0.11719	
246.0	0.0	0.11664	0.20728	
247.0	0.0	0.07709	0.2818	
248.0	0.0	0.04175	0.34973	
249.0	0.0	0.01721	0.42334	
250.0	0.0	-0.00037	0.49548	
251.0	0.0	-0.00659	0.5484	
252.0	0.0	-0.01062	0.59793	
253.0	0.0	-0.00439	0.65021	
254.0	0.0	0.00531	0.67639	
255.0	0.0	0.0249	0.69617	
256.0	0.0	0.04834	0.70166	
257.0	0.0	0.0791	0.69855	
258.0	0.0	0.1073	0.68774	
259.0	0.0	0.13696	0.69324	
260.0	0.0	0.1593	0.6936	
261.0	0.0	0.17633	0.71228	
262.0	0.0	0.18237	0.72107	
263.0	0.0	0.18439	0.73462	
264.0	0.0	0.18018	0.74707	
265.0	0.0	0.17871	0.77087	
266.0	0.0	0.17743	0.78735	
267.0	0.0	0.18329	0.80255	
268.0	0.0	0.19153	0.79816	
269.0	0.0	0.2048	0.79248	
270.0	0.0	0.2179	0.76245	
271.0	0.0	0.23383	0.73828	
272.0	0.0	0.24829	0.71027	
273.0	0.0	0.2666	0.69122	
274.0	0.0	0.28528	0.64874	
275.0	0.0	0.30597	0.62073	
276.0	0.0	0.32886	0.58905	
277.0	0.0	0.35742	0.55847	
278.0	0.0	0.38525	0.51782	
279.0	0.0	0.41254	0.48303	
280.0	0.0	0.43506	0.44714	
281.0	0.0	0.45923	0.40155	
282.0	0.0	0.48267	0.35046	
283.0	0.0	0.50574	0.30945	
284.0	0.0	0.52515	0.25214	
285.0	0.0	0.54382	0.20435	
286.0	0.0	0.55957	0.14813	
287.0	0.0	0.57568	0.09485	
288.0	0.0	0.59436	0.02957	
289.0	0.0	0.62146	-0.04303	
290.0	0.0	0.65222	-0.11902	
291.0	0.0	0.68884	-0.19043	
292.0	0.0	0.72437	-0.27228	
293.0	0.0	0.75989	-0.32666	
294.0	0.0	0.79175	-0.36502	
295.0	0.0	0.82251	-0.38159	
296.0	0.0	0.84778	-0.38928	
297.0	0.0	0.87268	-0.38681	
298.0	0.0	0.89539	-0.39258	
299.0	0.0	0.92029	-0.39551	
300.0	0.0	0.94482	-0.40192	
301.0	0.0	0.96973	-0.39734	
302.0	0.0	0.99152	-0.39606	
303.0	0.0	1.01477	-0.37152	
304.0	0.0	1.03674	-0.34048	
305.0	0.0	1.06146	-0.28729	
306.0	0.0	1.08472	-0.22375	
307.0	0.0	1.10706	-0.1571	
308.0	0.0	1.12756	-0.08304	
309.0	0.0	1.14661	-0.02014	
310.0	0.0	1.16107	0.03113	
311.0	0.0	1.17847	0.08643	
312.0	0.0	1.19604	0.1333	
313.0	0.0	1.21179	0.1972	
314.0	0.0	1.22241	0.24902	
315.0	0.0	1.22644	0.31787	
316.0	0.0	1.22974	0.36145	
317.0	0.0	1.23669	0.41895	
318.0	0.0	1.24695	0.46216	
319.0	0.0	1.26306	0.50198	
320.0	0.0	1.27661	0.50867	
321.0	0.0	1.28906	0.5148	
322.0	0.0	1.30225	0.51544	
323.0	0.0	1.3114	0.52094	
324.0	0.0	1.31763	0.52405	
325.0	0.0	1.31909	0.52295	
326.0	0.0	1.31213	0.49896	
327.0	0.0	1.29822	0.4726	
328.0	0.0	1.27551	0.44312	
329.0	0.0	1.24786	0.37225	
330.0	0.0	1.21692	0.31805	
331.0	0.0	1.18835	0.26624	
332.0	0.0	1.15833	0.19263	
333.0	0.0	1.13232	0.14612	
334.0	0.0	1.10962	0.10144	
335.0	0.0	1.09442	0.07544	
336.0	0.0	1.07812	0.03809	
337.0	0.0	1.06421	-0.00146	
338.0	0.0	1.04663	-0.03644	
339.0	0.0	1.02905	-0.0575	
340.0	0.0	1.00781	-0.08734	
341.0	0.0	0.98364	-0.11755	
342.0	0.0	0.95435	-0.15271	
343.0	0.0	0.92578	-0.17249	
344.0	0.0	0.89246	-0.18951	
345.0	0.0	0.8606	-0.19647	
346.0	0.0	0.82526	-0.19244	
347.0	0.0	0.79138	-0.19318	
348.0	0.0	0.75824	-0.19446	
349.0	0.0	0.73535	-0.19135	
350.0	0.0	0.71906	-0.19501	
351.0	0.0	0.71613	-0.21497	
352.0	0.0	0.7218	-0.23291	
353.0	0.0	0.73975	-0.23373	
354.0	0.0	0.76465	-0.22998	
355.0	0.0	0.79816	-0.22147	
356.0	0.0	0.83569	-0.20801	
357.0	0.0	0.87891	-0.18109	
358.0	0.0	0.92102	-0.15161	
359.0	0.0	0.95947	-0.11188	
360.0	0.0	0.99554	-0.07288	
361.0	0.0	1.02905	-0.02307	
362.0	0.0	1.06018	0.02948	
363.0	0.0	1.08984	0.09924	
364.0	0.0	1.11731	0.15912	
365.0	0.0	1.14331	0.23932	
366.0	0.0	1.16748	0.29535	
367.0	0.0	1.18817	0.336	
368.0	0.0	1.20923	0.3902	
369.0	0.0	1.22607	0.42352	
370.0	0.0	1.23633	0.47113	
371.0	0.0	1.24548	0.5083	
372.0	0.0	1.24695	0.54309	
373.0	0.0	1.24786	0.57678	
374.0	0.0	1.24365	0.63245	
375.0	0.0	1.24164	0.68298	
376.0	0.0	1.23889	0.72565	
377.0	0.0	1.23981	0.76978	
378.0	0.0	1.24017	0.81079	
379.0	0.0	1.24585	0.8465	
380.0	0.0	1.25244	0.87634	
381.0	0.0	1.26489	0.90894	
382.0	0.0	1.27734	0.93439	
383.0	0.0	1.29272	0.9624	
384.0	0.0	1.30664	0.98895	
385.0	0.0	1.31909	1.01331	
386.0	0.0	1.32935	1.03107	
387.0	0.0	1.3396	1.04626	
388.0	0.0	1.34839	1.05084	
389.0	0.0	1.35645	1.05652	
390.0	0.0	1.36304	1.05396	
391.0	0.0	1.37036	1.04993	
392.0	0.0	1.37476	1.03802	
393.0	0.0	1.38062	1.02502	
394.0	0.0	1.38501	1.00433	
395.0	0.0	1.3894	0.98456	
396.0	0.0	1.39233	0.96259	
397.0	0.0	1.39526	0.94336	
398.0	0.0	1.39563	0.92267	
399.0	0.0	1.396	0.90637	
400.0	0.0	1.39233	0.88971	
401.0	0.0	1.38977	0.87671	
402.0	0.0	1.38428	0.86462	
403.0	0.0	1.37842	0.86444	
404.0	0.0	1.36963	0.85986	
405.0	0.0	1.36267	0.86407	
406.0	0.0	1.35168	0.86444	
407.0	0.0	1.34363	0.86975	
408.0	0.0	1.33337	0.86261	
409.0	0.0	1.32825	0.85748	
410.0	0.0	1.32349	0.84119	
411.0	0.0	1.32092	0.82855	
412.0	0.0	1.31763	0.81079	
413.0	0.0	1.31653	0.79706	
414.0	0.0	1.3147	0.78149	
415.0	0.0	1.31506	0.76685	
416.0	0.0	1.31323	0.75916	
417.0	0.0	1.3125	0.75073	
418.0	0.0	1.30994	0.74084	
419.0	0.0	1.30811	0.74304	
420.0	0.0	1.30298	0.73975	
421.0	0.0	1.29565	0.74762	
422.0	0.0	1.28174	0.76355	
423.0	0.0	1.26709	0.78369	
424.0	0.0	1.24695	0.80585	
425.0	0.0	1.22681	0.82983	
426.0	0.0	1.20557	0.85199	
427.0	0.0	1.18433	0.87854	
428.0	0.0	1.16345	0.8952	
429.0	0.0	1.14221	0.90948	
430.0	0.0	1.11914	0.91315	
431.0	0.0	1.0979	0.91919	
432.0	0.0	1.07849	0.9104	
433.0	0.0	1.06128	0.89081	
434.0	0.0	1.0459	0.87048	
435.0	0.0	1.03271	0.83624	
436.0	0.0	1.0199	0.79541	
437.0	0.0	1.00818	0.75769	
438.0	0.0	0.9928	0.71722	
439.0	0.0	0.97449	0.68573	
440.0	0.0	0.94922	0.65204	
441.0	0.0	0.91772	0.61963	
442.0	0.0	0.87964	0.58539	
443.0	0.0	0.84082	0.54456	
444.0	0.0	0.80457	0.50464	
445.0	0.0	0.76904	0.46216	
446.0	0.0	0.73114	0.41309	
447.0	0.0	0.69159	0.36017	
448.0	0.0	0.65002	0.30011	
449.0	0.0	0.60791	0.2363	
450.0	0.0	0.56287	0.16772	
451.0	0.0	0.52002	0.1084	
452.0	0.0	0.47589	0.03497	
453.0	0.0	0.43652	-0.02014	
454.0	0.0	0.39661	-0.08075	
455.0	0.0	0.35962	-0.12859	
456.0	0.0	0.3186	-0.18457	
457.0	0.0	0.27759	-0.23584	
458.0	0.0	0.23438	-0.29205	
459.0	0.0	0.19336	-0.33252	
460.0	0.0	0.15344	-0.38599	
461.0	0.0	0.1181	-0.42407	
462.0	0.0	0.08459	-0.47424	
463.0	0.0	0.05347	-0.50299	
464.0	0.0	0.02271	-0.54987	
465.0	0.0	-0.0022	-0.57257	
466.0	0.0	-0.02271	-0.60663	
467.0	0.0	-0.03735	-0.62595	
468.0	0.0	-0.05255	-0.66248	
469.0	0.0	-0.0683	-0.6834	
470.0	0.0	-0.08752	-0.69928	
471.0	0.0	-0.10895	-0.71191	
472.0	0.0	-0.13202	-0.72336	
473.0	0.0	-0.15161	-0.73627	
474.0	0.0	-0.16681	-0.75238	
475.0	0.0	-0.17944	-0.77985	
476.0	0.0	-0.19135	-0.8194	
477.0	0.0	-0.19263	-0.86005	
478.0	0.0	-0.19446	-0.89319	
479.0	0.0	-0.19336	-0.91287	
480.0	0.0	-0.19519	-0.94148	
481.0	0.0	-0.19464	-0.96149	
482.0	0.0	-0.19373	-0.98163	
483.0	0.0	-0.18896	-0.99701	
484.0	0.0	-0.18274	-1.02118	
485.0	0.0	-0.17505	-1.03683	
486.0	0.0	-0.16772	-1.05652	
487.0	0.0	-0.15601	-1.07556	
488.0	0.0	-0.14502	-1.09314	
489.0	0.0	-0.12964	-1.10742	
490.0	0.0	-0.11499	-1.12115	
491.0	0.0	-0.09869	-1.1402	
492.0	0.0	-0.08423	-1.15192	
493.0	0.0	-0.07031	-1.15787	
494.0	0.0	-0.05859	-1.17004	
495.0	0.0	-0.04504	-1.17613	
496.0	0.0	-0.03149	-1.18158	
497.0	0.0	-0.01318	-1.17792	
498.0	0.0	0.00806	-1.18044	
499.0	0.0	0.03571	-1.18048	
500.0	0.0	0.06628	-1.18433	
501.0	0.0	0.10254	-1.19147	
502.0	0.0	0.14117	-1.20026	
503.0	0.0	0.1853	-1.2085	
504.0	0.0	0.2298	-1.21761	
505.0	0.0	0.27612	-1.22617	
506.0	0.0	0.3197	-1.22241	
507.0	0.0	0.36182	-1.22333	
508.0	0.0	0.39935	-1.22021	
509.0	0.0	0.43433	-1.21426	
510.0	0.0	0.46545	-1.21408	
511.0	0.0	0.49292	-1.209	
512.0	0.0	0.51599	-1.2041	
513.0	0.0	0.53687	-1.19302	
514.0	0.0	0.55371	-1.18542	
515.0	0.0	0.56836	-1.17499	
516.0	0.0	0.57843	-1.1629	
517.0	0.0	0.58521	-1.14729	
518.0	0.0	0.58795	-1.13681	
519.0	0.0	0.58813	-1.12152	
520.0	0.0	0.58411	-1.11411	
521.0	0.0	0.57751	-1.10587	
522.0	0.0	0.56763	-1.10229	
523.0	0.0	0.55756	-1.09927	
524.0	0.0	0.54822	-1.09561	
525.0	0.0	0.53833	-1.09195	
526.0	0.0	0.52808	-1.09286	
527.0	0.0	0.51746	-1.08893	
528.0	0.0	0.50647	-1.08966	
529.0	0.0	0.49896	-1.08508	
530.0	0.0	0.49146	-1.08289	
531.0	0.0	0.48633	-1.08678	
532.0	0.0	0.48138	-1.08389	
533.0	0.0	0.47827	-1.07895	
534.0	0.0	0.47351	-1.08133	
535.0	0.0	0.4704	-1.0741	
536.0	0.0	0.46381	-1.0708	
537.0	0.0	0.45795	-1.0578	
538.0	0.0	0.45227	-1.05011	
539.0	0.0	0.44824	-1.04178	
540.0	0.0	0.44348	-1.03812	
541.0	0.0	0.44238	-1.02791	
542.0	0.0	0.44055	-1.02621	
543.0	0.0	0.44055	-1.02209	
544.0	0.0	0.43982	-1.02155	
545.0	0.0	0.4422	-1.0188	
546.0	0.0	0.44458	-1.01953	
547.0	0.0	0.45227	-1.01349	
548.0	0.0	0.46564	-1.01642	
549.0	0.0	0.48486	-1.00177	
550.0	0.0	0.50684	-0.99225	
551.0	0.0	0.5332	-0.97577	
552.0	0.0	0.56067	-0.96368	
553.0	0.0	0.59253	-0.94601	
554.0	0.0	0.62476	-0.92926	
555.0	0.0	0.66028	-0.91077	
556.0	0.0	0.69983	-0.89337	
557.0	0.0	0.74414	-0.87213	
558.0	0.0	0.78918	-0.85492	
559.0	0.0	0.8313	-0.84128	
560.0	0.0	0.87195	-0.82599	
561.0	0.0	0.9082	-0.80951	
562.0	0.0	0.94263	-0.79669	
563.0	0.0	0.97412	-0.77692	
564.0	0.0	1.00488	-0.75916	
565.0	0.0	1.03198	-0.73572	
566.0	0.0	1.05908	-0.71146	
567.0	0.0	1.08179	-0.68472	
568.0	0.0	1.10449	-0.66302	
569.0	0.0	1.1261	-0.64014	
570.0	0.0	1.14551	-0.61688	
571.0	0.0	1.16272	-0.59656	
572.0	0.0	1.17773	-0.58081	
573.0	0.0	1.19019	-0.56708	
574.0	0.0	1.19604	-0.54749	
575.0	0.0	1.19971	-0.53302	
576.0	0.0	1.19623	-0.52286	
577.0	0.0	1.18872	-0.51031	
578.0	0.0	1.1748	-0.50208	
579.0	0.0	1.15833	-0.49329	
580.0	0.0	1.14221	-0.48862	
581.0	0.0	1.12537	-0.47864	
582.0	0.0	1.10815	-0.47864	
583.0	0.0	1.09241	-0.46637	
584.0	0.0	1.07593	-0.45831	
585.0	0.0	1.06238	-0.44504	
586.0	0.0	1.04956	-0.43433	
587.0	0.0	1.04041	-0.41913	
588.0	0.0	1.03198	-0.40594	
589.0	0.0	1.02686	-0.3924	
590.0	0.0	1.02356	-0.38782	
591.0	0.0	1.02173	-0.37811	
592.0	0.0	1.01898	-0.36713	
593.0	0.0	1.01697	-0.35156	
594.0	0.0	1.01514	-0.33929	
595.0	0.0	1.01587	-0.32666	
596.0	0.0	1.01733	-0.3175	
597.0	0.0	1.02429	-0.31	
598.0	0.0	1.03271	-0.29828	
599.0	0.0	1.04553	-0.2926	
600.0	0.0	1.05945	-0.28253	
601.0	0.0	1.07739	-0.27319	
602.0	0.0	1.09717	-0.26825	
603.0	0.0	1.11987	-0.26212	
604.0	0.0	1.14258	-0.25726	
605.0	0.0	1.16711	-0.24445	
606.0	0.0	1.19	-0.23767	
607.0	0.0	1.20959	-0.2292	
608.0	0.0	1.22681	-0.22614	
609.0	0.0	1.24292	-0.21698	
610.0	0.0	1.25757	-0.20801	
611.0	0.0	1.27185	-0.20435	
612.0	0.0	1.28577	-0.19958	
613.0	0.0	1.29639	-0.18558	
614.0	0.0	1.30774	-0.17413	
615.0	0.0	1.31689	-0.15344	
616.0	0.0	1.32568	-0.13184	
617.0	0.0	1.33081	-0.10748	
618.0	0.0	1.33081	-0.08643	
619.0	0.0	1.32605	-0.07489	
620.0	0.0	1.3158	-0.06665	
621.0	0.0	1.30408	-0.07013	
622.0	0.0	1.2887	-0.07562	
623.0	0.0	1.27441	-0.07196	
624.0	0.0	1.25977	-0.06738	
625.0	0.0	1.24585	-0.05859	
626.0	0.0	1.2323	-0.03827	
627.0	0.0	1.22021	-0.02087	
628.0	0.0	1.2063	-0.00769	
629.0	0.0	1.19421	0.00879	
630.0	0.0	1.18066	0.02376	
631.0	0.0	1.1684	0.03882	
632.0	0.0	1.15576	0.04999	
633.0	0.0	1.14294	0.0472	
634.0	0.0	1.12866	0.05035	
635.0	0.0	1.11804	0.05402	
636.0	0.0	1.10815	0.0596	
637.0	0.0	1.10156	0.06006	
638.0	0.0	1.0957	0.05164	
639.0	0.0	1.09204	0.05933	
640.0	0.0	1.08893	0.0498	
641.0	0.0	1.08801	0.06464	
642.0	0.0	1.08618	0.05891	
643.0	0.0	1.0849	0.06427	
644.0	0.0	1.08325	0.07059	
645.0	0.0	1.08325	0.07635	
646.0	0.0	1.08069	0.08276	
647.0	0.0	1.07703	0.08432	
648.0	0.0	1.07007	0.09998	
649.0	0.0	1.06128	0.10272	
650.0	0.0	1.05029	0.11865	
651.0	0.0	1.03931	0.13	
652.0	0.0	1.02832	0.13513	
653.0	0.0	1.02045	0.15198	
654.0	0.0	1.0144	0.15527	
655.0	0.0	1.01331	0.16772	
656.0	0.0	1.0144	0.17871	
657.0	0.0	1.02136	0.20782	
658.0	0.0	1.03308	0.21552	
659.0	0.0	1.05139	0.24609	
660.0	0.0	1.073	0.25415	
661.0	0.0	1.10046	0.27979	
662.0	0.0	1.12903	0.31403	
663.0	0.0	1.15466	0.33197	
664.0	0.0	1.1792	0.35468	
665.0	0.0	1.20227	0.37646	
666.0	0.0	1.22168	0.41418	
667.0	0.0	1.23999	0.43176	
668.0	0.0	1.25684	0.47095	
669.0	0.0	1.27002	0.52405	
670.0	0.0	1.2832	0.58118	
671.0	0.0	1.29456	0.62952	
672.0	0.0	1.30225	0.65277	
673.0	0.0	1.30444	0.65387	
674.0	0.0	1.30042	0.62329	
675.0	0.0	1.29199	0.57861	
676.0	0.0	1.27588	0.52478	
677.0	0.0	1.2561	0.46069	
678.0	0.0	1.23157	0.4222	
679.0	0.0	1.2041	0.39697	
680.0	0.0	1.1748	0.39276	
681.0	0.0	1.14185	0.37683	
682.0	0.0	1.10669	0.35339	
683.0	0.0	1.07007	0.35083	
684.0	0.0	1.03143	0.33032	
685.0	0.0	0.9928	0.30826	
686.0	0.0	0.95471	0.27571	
687.0	0.0	0.91681	0.26221	
688.0	0.0	0.87671	0.24481	
689.0	0.0	0.83569	0.21112	
690.0	0.0	0.79468	0.20453	
691.0	0.0	0.75549	0.17743	
692.0	0.0	0.71777	0.17175	
693.0	0.0	0.68024	0.15601	
694.0	0.0	0.64087	0.14429	
695.0	0.0	0.60205	0.13806	
696.0	0.0	0.5614	0.1344	
697.0	0.0	0.5224	0.13092	
698.0	0.0	0.48413	0.13184	
699.0	0.0	0.44531	0.13019	
700.0	0.0	0.40814	0.12836	
701.0	0.0	0.3717	0.12305	
702.0	0.0	0.33398	0.11938	
703.0	0.0	0.2981	0.11975	
704.0	0.0	0.26257	0.1236	
705.0	0.0	0.22961	0.12836	
706.0	0.0	0.20068	0.13202	
707.0	0.0	0.17725	0.13257	
708.0	0.0	0.1604	0.13092	
709.0	0.0	0.14978	0.14337	
710.0	0.0	0.14502	0.13916	
711.0	0.0	0.14539	0.15253	
712.0	0.0	0.15143	0.14612	
713.0	0.0	0.16516	0.16022	
714.0	0.0	0.18347	0.16187	
715.0	0.0	0.20618	0.16022	
716.0	0.0	0.2298	0.15326	
717.0	0.0	0.25488	0.15253	
718.0	0.0	0.28052	0.15729	
719.0	0.0	0.30762	0.14923	
720.0	0.0	0.33435	0.14923	
721.0	0.0	0.36163	0.16388	
722.0	0.0	0.38818	0.18311	
723.0	0.0	0.41272	0.21991	
724.0	0.0	0.43689	0.26459	
725.0	0.0	0.45923	0.31073	
726.0	0.0	0.47919	0.3457	
727.0	0.0	0.49548	0.35852	
728.0	0.0	0.50684	0.34937	
729.0	0.0	0.51562	0.33289	
730.0	0.0	0.52167	0.31201	
731.0	0.0	0.52844	0.28711	
732.0	0.0	0.53503	0.26257	
733.0	0.0	0.54089	0.24774	
734.0	0.0	0.54602	0.23474	
735.0	0.0	0.54932	0.22595	
736.0	0.0	0.55188	0.21625	
737.0	0.0	0.55078	0.20874	
738.0	0.0	0.54565	0.19482	
739.0	0.0	0.53687	0.18402	
740.0	0.0	0.52441	0.17047	
741.0	0.0	0.51086	0.15948	
742.0	0.0	0.49512	0.15216	
743.0	0.0	0.47864	0.14612	
744.0	0.0	0.45996	0.14392	
745.0	0.0	0.4411	0.14227	
746.0	0.0	0.42078	0.14264	
747.0	0.0	0.40063	0.14095	
748.0	0.0	0.37738	0.14246	
749.0	0.0	0.35266	0.14044	
750.0	0.0	0.32758	0.1463	
751.0	0.0	0.30286	0.1496	
752.0	0.0	0.27942	0.14868	
753.0	0.0	0.25708	0.16132	
754.0	0.0	0.23511	0.17102	
755.0	0.0	0.21423	0.18823	
756.0	0.0	0.19336	0.19098	
757.0	0.0	0.17194	0.21021	
758.0	0.0	0.14905	0.22357	
759.0	0.0	0.12817	0.23419	
760.0	0.0	0.10785	0.25085	
761.0	0.0	0.08954	0.26587	
762.0	0.0	0.07324	0.28162	
763.0	0.0	0.05951	0.29462	
764.0	0.0	0.04742	0.29462	
765.0	0.0	0.03662	0.29297	
766.0	0.0	0.02637	0.2829	
767.0	0.0	0.0163	0.28235	
768.0	0.0	0.00677	0.27539	
769.0	0.0	-0.00293	0.26276	
770.0	0.0	-0.01208	0.25104	
771.0	0.0	-0.02106	0.24023	
772.0	0.0	-0.03021	0.2395	
773.0	0.0	-0.03882	0.22357	
774.0	0.0	-0.04578	0.20874	
775.0	0.0	-0.05219	0.20544	
776.0	0.0	-0.05786	0.19629	
777.0	0.0	-0.06555	0.18604	
778.0	0.0	-0.07306	0.17468	
779.0	0.0	-0.0802	0.15967	
780.0	0.0	-0.08606	0.14209	
781.0	0.0	-0.09137	0.1192	
782.0	0.0	-0.0965	0.0943	
783.0	0.0	-0.10236	0.0769	
784.0	0.0	-0.10931	0.05072	
785.0	0.0	-0.11719	0.01941	
786.0	0.0	-0.12598	0.0022	
787.0	0.0	-0.1333	-0.02545	
788.0	0.0	-0.14099	-0.04926	
789.0	0.0	-0.15051	-0.07251	
790.0	0.0	-0.15967	-0.11426	
791.0	0.0	-0.16901	-0.14594	
792.0	0.0	-0.17615	-0.17963	
793.0	0.0	-0.18256	-0.22064	
794.0	0.0	-0.18933	-0.26564	
795.0	0.0	-0.19739	-0.30954	
796.0	0.0	-0.20599	-0.35431	
797.0	0.0	-0.21625	-0.39917	
798.0	0.0	-0.22888	-0.44733	
799.0	0.0	-0.24298	-0.49457	
800.0	0.0	-0.25635	-0.54236	
801.0	0.0	-0.2699	-0.59651	
802.0	0.0	-0.2829	-0.64545	
803.0	0.0	-0.29663	-0.69049	
804.0	0.0	-0.31183	-0.7348	
805.0	0.0	-0.33023	-0.76923	
806.0	0.0	-0.35101	-0.81161	
807.0	0.0	-0.37372	-0.8421	
808.0	0.0	-0.39825	-0.87021	
809.0	0.0	-0.42645	-0.89859	
810.0	0.0	-0.45703	-0.91498	
811.0	0.0	-0.48999	-0.94171	
812.0	0.0	-0.52405	-0.95087	
813.0	0.0	-0.55875	-0.96899	
814.0	0.0	-0.59189	-0.98035	
815.0	0.0	-0.62567	-0.99371	
816.0	0.0	-0.659	-0.99811	
817.0	0.0	-0.6936	-1.00525	
818.0	0.0	-0.72711	-1.02072	
819.0	0.0	-0.76172	-1.02841	
820.0	0.0	-0.79568	-1.02567	
821.0	0.0	-0.8313	-1.02924	
822.0	0.0	-0.86609	-1.03207	
823.0	0.0	-0.9007	-1.02979	
824.0	0.0	-0.9326	-1.02502	
825.0	0.0	-0.96405	-1.0253	
826.0	0.0	-0.99243	-1.02365	
827.0	0.0	-1.02017	-1.02237	
828.0	0.0	-1.04512	-1.0209	
829.0	0.0	-1.06934	-1.01807	
830.0	0.0	-1.09126	-1.0144	
831.0	0.0	-1.11292	-1.00887	
832.0	0.0	-1.13214	-1.00424	
833.0	0.0	-1.15137	-0.99078	
834.0	0.0	-1.16821	-0.98895	
835.0	0.0	-1.18465	-0.97412	
836.0	0.0	-1.19952	-0.96899	
837.0	0.0	-1.21536	-0.95435	
838.0	0.0	-1.22864	-0.95078	
839.0	0.0	-1.24283	-0.93567	
840.0	0.0	-1.254	-0.92615	
841.0	0.0	-1.2653	-0.90742	
842.0	0.0	-1.27556	-0.90875	
843.0	0.0	-1.28577	-0.88165	
844.0	0.0	-1.29465	-0.87543	
845.0	0.0	-1.3028	-0.854	
846.0	0.0	-1.30952	-0.85968	
847.0	0.0	-1.31685	-0.84027	
848.0	0.0	-1.32362	-0.8291	
849.0	0.0	-1.32953	-0.80457	
850.0	0.0	-1.33319	-0.80035	
851.0	0.0	-1.3363	-0.78918	
852.0	0.0	-1.33727	-0.77847	
853.0	0.0	-1.33704	-0.77362	
854.0	0.0	-1.33205	-0.77065	
855.0	0.0	-1.32239	-0.76016	
856.0	0.0	-1.30811	-0.763	
857.0	0.0	-1.28993	-0.737	
858.0	0.0	-1.26883	-0.72913	
859.0	0.0	-1.24745	-0.71356	
860.0	0.0	-1.22314	-0.70331	
861.0	0.0	-1.19385	-0.6839	
862.0	0.0	-1.15979	-0.68188	
863.0	0.0	-1.12349	-0.68701	
864.0	0.0	-1.08545	-0.65863	
865.0	0.0	-1.04626	-0.65598	
866.0	0.0	-1.00452	-0.6449	
867.0	0.0	-0.9613	-0.63171	
868.0	0.0	-0.91516	-0.59381	
869.0	0.0	-0.86865	-0.55371	
870.0	0.0	-0.82086	-0.5191	
871.0	0.0	-0.77307	-0.47104	
872.0	0.0	-0.72546	-0.42041	
873.0	0.0	-0.6795	-0.38434	
874.0	0.0	-0.63501	-0.36859	
875.0	0.0	-0.59344	-0.37262	
876.0	0.0	-0.55408	-0.36017	
877.0	0.0	-0.51709	-0.38123	
878.0	0.0	-0.48267	-0.38068	
879.0	0.0	-0.45099	-0.37592	
880.0	0.0	-0.42041	-0.37299	
881.0	0.0	-0.39386	-0.362	
882.0	0.0	-0.36877	-0.35303	
883.0	0.0	-0.34717	-0.33051	
884.0	0.0	-0.32611	-0.32227	
885.0	0.0	-0.30872	-0.3208	
886.0	0.0	-0.29333	-0.31	
887.0	0.0	-0.28125	-0.297	
888.0	0.0	-0.26953	-0.29388	
889.0	0.0	-0.26038	-0.28601	
890.0	0.0	-0.25342	-0.27457	
891.0	0.0	-0.25232	-0.27859	
892.0	0.0	-0.2547	-0.26459	
893.0	0.0	-0.26276	-0.26514	
894.0	0.0	-0.27576	-0.2514	
895.0	0.0	-0.2926	-0.25836	
896.0	0.0	-0.31238	-0.25177	
897.0	0.0	-0.33636	-0.24664	
898.0	0.0	-0.362	-0.24188	
899.0	0.0	-0.39001	-0.23529	
900.0	0.0	-0.41895	-0.22778	
901.0	0.0	-0.44788	-0.21725	
902.0	0.0	-0.47571	-0.2016	
903.0	0.0	-0.50171	-0.20123	
904.0	0.0	-0.52625	-0.18951	
905.0	0.0	-0.55106	-0.19757	
906.0	0.0	-0.57422	-0.19281	
907.0	0.0	-0.59674	-0.18219	
908.0	0.0	-0.61652	-0.17322	
909.0	0.0	-0.63409	-0.17358	
910.0	0.0	-0.64764	-0.1864	
911.0	0.0	-0.659	-0.17194	
912.0	0.0	-0.66724	-0.18549	
913.0	0.0	-0.67456	-0.16736	
914.0	0.0	-0.67822	-0.18127	
915.0	0.0	-0.67932	-0.16882	
916.0	0.0	-0.67438	-0.17432	
917.0	0.0	-0.66541	-0.15784	
918.0	0.0	-0.65039	-0.15875	
919.0	0.0	-0.63116	-0.14319	
920.0	0.0	-0.60663	-0.15793	
921.0	0.0	-0.57861	-0.14868	
922.0	0.0	-0.54529	-0.15344	
923.0	0.0	-0.50995	-0.14099	
924.0	0.0	-0.47095	-0.13129	
925.0	0.0	-0.42993	-0.12909	
926.0	0.0	-0.38727	-0.12982	
927.0	0.0	-0.34351	-0.11316	
928.0	0.0	-0.29736	-0.09302	
929.0	0.0	-0.25067	-0.08716	
930.0	0.0	-0.20471	-0.09247	
931.0	0.0	-0.16095	-0.08615	
932.0	0.0	-0.11646	-0.0965	
933.0	0.0	-0.07361	-0.11078	
934.0	0.0	-0.03168	-0.09943	
935.0	0.0	0.00732	-0.0813	
936.0	0.0	0.04358	-0.0683	
937.0	0.0	0.07507	-0.03589	
938.0	0.0	0.10474	-0.01117	
939.0	0.0	0.12708	0.00439	
940.0	0.0	0.14447	0.02124	
941.0	0.0	0.15674	0.04578	
942.0	0.0	0.16553	0.06042	
943.0	0.0	0.17065	0.06958	
944.0	0.0	0.17468	0.07361	
945.0	0.0	0.1745	0.07123	
946.0	0.0	0.17194	0.07892	
947.0	0.0	0.16479	0.07251	
948.0	0.0	0.15472	0.07063	
949.0	0.0	0.14209	0.07196	
950.0	0.0	0.12726	0.07306	
951.0	0.0	0.10858	0.06848	
952.0	0.0	0.08881	0.06207	
953.0	0.0	0.06702	0.05255	
954.0	0.0	0.04468	0.04889	
955.0	0.0	0.02142	0.05219	
956.0	0.0	-0.00092	0.04907	
957.0	0.0	-0.02417	0.05127	
958.0	0.0	-0.04578	0.03955	
959.0	0.0	-0.07068	0.0412	
960.0	0.0	-0.09302	0.02802	
961.0	0.0	-0.11646	0.03149	
962.0	0.0	-0.13733	0.03241	
963.0	0.0	-0.15601	0.01923	
964.0	0.0	-0.16736	0.01208	
965.0	0.0	-0.17633	0.00348	
966.0	0.0	-0.18073	-0.00357	
967.0	0.0	-0.18338	-0.01062	
968.0	0.0	-0.18036	-0.01263	
969.0	0.0	-0.17139	-0.01776	
970.0	0.0	-0.15601	-0.02032	
971.0	0.0	-0.13641	-0.03754	
972.0	0.0	-0.11096	-0.04175	
973.0	0.0	-0.08203	-0.04175	
974.0	0.0	-0.04889	-0.05969	
975.0	0.0	-0.01392	-0.07306	
976.0	0.0	0.02289	-0.08752	
977.0	0.0	0.05859	-0.08661	
978.0	0.0	0.09521	-0.07178	
979.0	0.0	0.13019	-0.05255	
980.0	0.0	0.16479	-0.03278	
981.0	0.0	0.19464	-0.02417	
982.0	0.0	0.22192	-0.02985	
983.0	0.0	0.24353	-0.04102	
984.0	0.0	0.2644	-0.06171	
985.0	0.0	0.28198	-0.09485	
986.0	0.0	0.29919	-0.12122	
987.0	0.0	0.31439	-0.14777	
988.0	0.0	0.33179	-0.16498	
989.0	0.0	0.34607	-0.19812	
990.0	0.0	0.36145	-0.21021	
991.0	0.0	0.37354	-0.23456	
992.0	0.0	0.38361	-0.24902	
993.0	0.0	0.39056	-0.26678	
994.0	0.0	0.39331	-0.29663	
995.0	0.0	0.39166	-0.31421	
996.0	0.0	0.38745	-0.34094	
997.0	0.0	0.37885	-0.36346	
998.0	0.0	0.36731	-0.39624	
999.0	0.0	0.35083	-0.41995	
1000.0	0.0	0.33197	-0.4444	
1001.0	0.0	0.31018	-0.47003	
1002.0	0.0	0.28857	-0.48651	
1003.0	0.0	0.2655	-0.50244	
1004.0	0.0	0.245	-0.52148	
1005.0	0.0	0.22485	-0.53925	
1006.0	0.0	0.20728	-0.54254	
1007.0	0.0	0.18933	-0.56451	
1008.0	0.0	0.17249	-0.5658	
1009.0	0.0	0.15381	-0.58237	
1010.0	0.0	0.13733	-0.59097	
1011.0	0.0	0.12012	-0.58923	
1012.0	0.0	0.10474	-0.59967	
1013.0	0.0	0.08936	-0.59702	
1014.0	0.0	0.07764	-0.59875	
1015.0	0.0	0.06592	-0.61084	
1016.0	0.0	0.05731	-0.61029	
1017.0	0.0	0.0498	-0.60013	
1018.0	0.0	0.04797	-0.60608	
1019.0	0.0	0.04852	-0.59981	
1020.0	0.0	0.0531	-0.59816	
1021.0	0.0	0.05896	-0.5874	
1022.0	0.0	0.06775	-0.59198	
1023.0	0.0	0.07764	-0.58392	
1024.0	0.0	0.09119	-0.57239	
1025.0	0.0	0.1051	-0.55481	
1026.0	0.0	0.12268	-0.55225	
1027.0	0.0	0.13916	-0.5397	
1028.0	0.0	0.15674	-0.53394	
1029.0	0.0	0.17249	-0.52835	
1030.0	0.0	0.18787	-0.51855	
1031.0	0.0	0.19849	-0.50276	
1032.0	0.0	0.20947	-0.47791	
1033.0	0.0	0.21643	-0.45877	
1034.0	0.0	0.22375	-0.44348	
1035.0	0.0	0.22852	-0.42618	
1036.0	0.0	0.23547	-0.4151	
1037.0	0.0	0.24042	-0.41757	
1038.0	0.0	0.24701	-0.42499	
1039.0	0.0	0.25122	-0.43616	
1040.0	0.0	0.25708	-0.44293	
1041.0	0.0	0.26056	-0.45831	
1042.0	0.0	0.2655	-0.46692	
1043.0	0.0	0.2688	-0.46252	
1044.0	0.0	0.27283	-0.47021	
1045.0	0.0	0.27466	-0.47163	
1046.0	0.0	0.27686	-0.4693	
1047.0	0.0	0.27576	-0.47113	
1048.0	0.0	0.27502	-0.47012	
1049.0	0.0	0.26953	-0.47855	
1050.0	0.0	0.26184	-0.48029	
1051.0	0.0	0.24994	-0.47534	
1052.0	0.0	0.2384	-0.48413	
1053.0	0.0	0.22522	-0.48212	
1054.0	0.0	0.21167	-0.47809	
1055.0	0.0	0.19336	-0.48441	
1056.0	0.0	0.17322	-0.48422	
1057.0	0.0	0.14777	-0.48761	
1058.0	0.0	0.11975	-0.47314	
1059.0	0.0	0.08423	-0.48047	
1060.0	0.0	0.04395	-0.47241	
1061.0	0.0	-0.00238	-0.47241	
1062.0	0.0	-0.05273	-0.46051	
1063.0	0.0	-0.11041	-0.45593	
1064.0	0.0	-0.1701	-0.45428	
1065.0	0.0	-0.23346	-0.44733	
1066.0	0.0	-0.29626	-0.43781	
1067.0	0.0	-0.36035	-0.43213	
1068.0	0.0	-0.42206	-0.41327	
1069.0	0.0	-0.48486	-0.40668	
1070.0	0.0	-0.54364	-0.40411	
1071.0	0.0	-0.60095	-0.39441	
1072.0	0.0	-0.6524	-0.38635	
1073.0	0.0	-0.70193	-0.36823	
1074.0	0.0	-0.74487	-0.36612	
1075.0	0.0	-0.78479	-0.36163	
1076.0	0.0	-0.81995	-0.35431	
1077.0	0.0	-0.85364	-0.35806	
1078.0	0.0	-0.88422	-0.32922	
1079.0	0.0	-0.91553	-0.3186	
1080.0	0.0	-0.94244	-0.30615	
1081.0	0.0	-0.97083	-0.29993	
1082.0	0.0	-0.99408	-0.28912	
1083.0	0.0	-1.01935	-0.27759	
1084.0	0.0	-1.04443	-0.24692	
1085.0	0.0	-1.06805	-0.22723	
1086.0	0.0	-1.08705	-0.20242	
1087.0	0.0	-1.10706	-0.17963	
1088.0	0.0	-1.1261	-0.17487	
1089.0	0.0	-1.14679	-0.1875	
1090.0	0.0	-1.16537	-0.1756	
1091.0	0.0	-1.18469	-0.19336	
1092.0	0.0	-1.20007	-0.23108	
1093.0	0.0	-1.21564	-0.24426	
1094.0	0.0	-1.22603	-0.23785	
1095.0	0.0	-1.23106	-0.24463	
1096.0	0.0	-1.22351	-0.24197	
1097.0	0.0	-1.20465	-0.23383	
1098.0	0.0	-1.17224	-0.25671	
1099.0	0.0	-1.13388	-0.23364	
1100.0	0.0	-1.08939	-0.22009	
1101.0	0.0	-1.04553	-0.18127	
1102.0	0.0	-1.00012	-0.17487	
1103.0	0.0	-0.95961	-0.15363	
1104.0	0.0	-0.92029	-0.13147	
1105.0	0.0	-0.88733	-0.10565	
1106.0	0.0	-0.85675	-0.07617	
1107.0	0.0	-0.8302	-0.0705	
1108.0	0.0	-0.80328	-0.04175	
1109.0	0.0	-0.77948	-0.01685	
1110.0	0.0	-0.75787	-0.00568	
1111.0	0.0	-0.74075	0.00806	
1112.0	0.0	-0.72729	0.0472	
1113.0	0.0	-0.71924	0.04468	
1114.0	0.0	-0.71292	0.06903	
1115.0	0.0	-0.7132	0.08624	
1116.0	0.0	-0.71521	0.11206	
1117.0	0.0	-0.72345	0.1051	
1118.0	0.0	-0.73572	0.11751	
1119.0	0.0	-0.75403	0.1311	
1120.0	0.0	-0.77454	0.14095	
1121.0	0.0	-0.79596	0.15527	
1122.0	0.0	-0.81628	0.17999	
1123.0	0.0	-0.83963	0.18164	
1124.0	0.0	-0.86115	0.19446	
1125.0	0.0	-0.88147	0.20673	
1126.0	0.0	-0.89813	0.18896	
1127.0	0.0	-0.91736	0.1853	
1128.0	0.0	-0.93567	0.18549	
1129.0	0.0	-0.95654	0.18274	
1130.0	0.0	-0.97591	0.16937	
1131.0	0.0	-0.99747	0.18018	
1132.0	0.0	-1.01917	0.16351	
1133.0	0.0	-1.04205	0.17047	
1134.0	0.0	-1.06018	0.18457	
1135.0	0.0	-1.07373	0.21844	
1136.0	0.0	-1.07767	0.27118	
1137.0	0.0	-1.07666	0.30496	
1138.0	0.0	-1.06696	0.3598	
1139.0	0.0	-1.05313	0.41986	
1140.0	0.0	-1.034	0.47662	
1141.0	0.0	-1.01129	0.5354	
1142.0	0.0	-0.98071	0.59143	
1143.0	0.0	-0.9472	0.63922	
1144.0	0.0	-0.90775	0.68903	
1145.0	0.0	-0.86847	0.73975	
1146.0	0.0	-0.8291	0.7771	
1147.0	0.0	-0.79449	0.8139	
1148.0	0.0	-0.76318	0.86078	
1149.0	0.0	-0.73755	0.89557	
1150.0	0.0	-0.71429	0.92761	
1151.0	0.0	-0.6958	0.95599	
1152.0	0.0	-0.67767	0.9847	
1153.0	0.0	-0.66174	1.00671	
1154.0	0.0	-0.64471	1.03052	
1155.0	0.0	-0.62805	1.05396	
1156.0	0.0	-0.60919	1.07845	
1157.0	0.0	-0.5918	1.10028	
1158.0	0.0	-0.57275	1.11749	
1159.0	0.0	-0.55664	1.13763	
1160.0	0.0	-0.53979	1.15741	
1161.0	0.0	-0.52625	1.16858	
1162.0	0.0	-0.5116	1.18872	
1163.0	0.0	-0.49878	1.19824	
1164.0	0.0	-0.48376	1.21399	
1165.0	0.0	-0.47058	1.2301	
1166.0	0.0	-0.4552	1.24146	
1167.0	0.0	-0.44183	1.25024	
1168.0	0.0	-0.42773	1.26361	
1169.0	0.0	-0.41547	1.27112	
1170.0	0.0	-0.40155	1.27753	
1171.0	0.0	-0.38983	1.2854	
1172.0	0.0	-0.37628	1.29218	
1173.0	0.0	-0.36603	1.28302	
1174.0	0.0	-0.35376	1.28705	
1175.0	0.0	-0.34332	1.28009	
1176.0	0.0	-0.33105	1.27698	
1177.0	0.0	-0.31929	1.26782	
1178.0	0.0	-0.30487	1.2627	
1179.0	0.0	-0.29077	1.25189	
1180.0	0.0	-0.27429	1.24475	
1181.0	0.0	-0.26001	1.23267	
1182.0	0.0	-0.24481	1.22351	
1183.0	0.0	-0.23273	1.21014	
1184.0	0.0	-0.22046	1.19366	
1185.0	0.0	-0.21112	1.18121	
1186.0	0.0	-0.20013	1.16199	
1187.0	0.0	-0.19153	1.14038	
1188.0	0.0	-0.18109	1.12527	
1189.0	0.0	-0.17267	1.09973	
1190.0	0.0	-0.16351	1.06805	
1191.0	0.0	-0.15637	1.03894	
1192.0	0.0	-0.14758	1.01093	
1193.0	0.0	-0.14099	0.98108	
1194.0	0.0	-0.1333	0.95673	
1195.0	0.0	-0.12708	0.9267	
1196.0	0.0	-0.11865	0.89301	
1197.0	0.0	-0.1106	0.8725	
1198.0	0.0	-0.09924	0.84888	
1199.0	0.0	-0.08752	0.82233	
1200.0	0.0	-0.0705	0.80438	
1201.0	0.0	-0.05383	0.78699	
1202.0	0.0	-0.03406	0.76648	
1203.0	0.0	-0.01611	0.74707	
1204.0	0.0	0.00256	0.71814	
1205.0	0.0	0.01758	0.70605	
1206.0	0.0	0.03333	0.69324	
1207.0	0.0	0.04633	0.67639	
1208.0	0.0	0.05988	0.65186	
1209.0	0.0	0.07104	0.62384	
1210.0	0.0	0.08331	0.60059	
1211.0	0.0	0.09485	0.56689	
1212.0	0.0	0.10529	0.54199	
1213.0	0.0	0.11224	0.51416	
1214.0	0.0	0.12012	0.47882	
1215.0	0.0	0.12671	0.453	
1216.0	0.0	0.1355	0.42078	
1217.0	0.0	0.14355	0.38928	
1218.0	0.0	0.15417	0.37527	
1219.0	0.0	0.1626	0.33481	
1220.0	0.0	0.17212	0.3186	
1221.0	0.0	0.17981	0.28619	
1222.0	0.0	0.18823	0.25305	
1223.0	0.0	0.19464	0.23621	
1224.0	0.0	0.20288	0.2124	
1225.0	0.0	0.20837	0.2005	
1226.0	0.0	0.2146	0.18347	
1227.0	0.0	0.21918	0.18146	
1228.0	0.0	0.22559	0.17542	
1229.0	0.0	0.23181	0.16406	
1230.0	0.0	0.24316	0.16434	
1231.0	0.0	0.25433	0.16663	
1232.0	0.0	0.26935	0.18219	
1233.0	0.0	0.28601	0.18951	
1234.0	0.0	0.30908	0.18274	
1235.0	0.0	0.33325	0.1853	
1236.0	0.0	0.36108	0.17487	
1237.0	0.0	0.38855	0.15637	
1238.0	0.0	0.4184	0.1485	
1239.0	0.0	0.44788	0.13623	
1240.0	0.0	0.47882	0.12524	
1241.0	0.0	0.5083	0.10931	
1242.0	0.0	0.54071	0.08405	
1243.0	0.0	0.56946	0.05511	
1244.0	0.0	0.59619	0.01657	
1245.0	0.0	0.61523	-0.02838	
1246.0	0.0	0.62915	-0.06958	
1247.0	0.0	0.63208	-0.13989	
1248.0	0.0	0.63007	-0.20142	
1249.0	0.0	0.61816	-0.26404	
1250.0	0.0	0.60114	-0.3197	
1251.0	0.0	0.57733	-0.36969	
1252.0	0.0	0.55225	-0.41364	
1253.0	0.0	0.52258	-0.44614	
1254.0	0.0	0.4964	-0.4726	
1255.0	0.0	0.46875	-0.48633	
1256.0	0.0	0.44348	-0.50134	
1257.0	0.0	0.41858	-0.51599	
1258.0	0.0	0.39697	-0.51837	
1259.0	0.0	0.37573	-0.53156	
1260.0	0.0	0.35815	-0.53101	
1261.0	0.0	0.33984	-0.54007	
1262.0	0.0	0.32336	-0.54071	
1263.0	0.0	0.30542	-0.55353	
1264.0	0.0	0.29004	-0.55298	
1265.0	0.0	0.27338	-0.55481	
1266.0	0.0	0.25928	-0.55261	
1267.0	0.0	0.24298	-0.55472	
1268.0	0.0	0.22943	-0.5462	
1269.0	0.0	0.21387	-0.54932	
1270.0	0.0	0.19867	-0.54822	
1271.0	0.0	0.18237	-0.54565	
1272.0	0.0	0.16772	-0.5311	
1273.0	0.0	0.15125	-0.53989	
1274.0	0.0	0.13678	-0.53522	
1275.0	0.0	0.12158	-0.54483	
1276.0	0.0	0.10913	-0.54089	
1277.0	0.0	0.09521	-0.53906	
1278.0	0.0	0.08313	-0.53027	
1279.0	0.0	0.06812	-0.52881	
1280.0	0.0	0.05566	-0.51984	
1281.0	0.0	0.04156	-0.51544	
1282.0	0.0	0.03113	-0.50244	
1283.0	0.0	0.01904	-0.49988	
1284.0	0.0	0.01062	-0.49915	
1285.0	0.0	0.00073	-0.50427	
1286.0	0.0	-0.00641	-0.50519	
1287.0	0.0	-0.01611	-0.51691	
1288.0	0.0	-0.02161	-0.51361	
1289.0	0.0	-0.02856	-0.51709	
1290.0	0.0	-0.03241	-0.50793	
1291.0	0.0	-0.03699	-0.5191	
1292.0	0.0	-0.03882	-0.51343	
1293.0	0.0	-0.04248	-0.51398	
1294.0	0.0	-0.04248	-0.50427	
1295.0	0.0	-0.04358	-0.49969	
1296.0	0.0	-0.04138	-0.48248	
1297.0	0.0	-0.04083	-0.47672	
1298.0	0.0	-0.03735	-0.46289	
1299.0	0.0	-0.03406	-0.45062	
1300.0	0.0	-0.02802	-0.44843	
1301.0	0.0	-0.02271	-0.44742	
1302.0	0.0	-0.01465	-0.43497	
1303.0	0.0	-0.00897	-0.43506	
1304.0	0.0	-0.00183	-0.43716	
1305.0	0.0	0.0033	-0.44257	
1306.0	0.0	0.01025	-0.4422	
1307.0	0.0	0.01501	-0.43945	
1308.0	0.0	0.02124	-0.44513	
1309.0	0.0	0.0249	-0.45044	
1310.0	0.0	0.0304	-0.4563	
1311.0	0.0	0.03314	-0.46545	
1312.0	0.0	0.03662	-0.47003	
1313.0	0.0	0.03845	-0.47626	
1314.0	0.0	0.04193	-0.47681	
1315.0	0.0	0.04248	-0.4856	
1316.0	0.0	0.04523	-0.49109	
1317.0	0.0	0.04541	-0.49622	
1318.0	0.0	0.04797	-0.49365	
1319.0	0.0	0.04761	-0.50345	
1320.0	0.0	0.04944	-0.49796	
1321.0	0.0	0.04907	-0.51398	
1322.0	0.0	0.05017	-0.51315	
1323.0	0.0	0.04944	-0.505	
1324.0	0.0	0.05054	-0.51192	
1325.0	0.0	0.04999	-0.5116	
1326.0	0.0	0.05164	-0.51508	
1327.0	0.0	0.05035	-0.50867	
1328.0	0.0	0.05017	-0.51984	
1329.0	0.0	0.04651	-0.51288	
1330.0	0.0	0.04504	-0.51434	
1331.0	0.0	0.04211	-0.51929	
1332.0	0.0	0.04321	-0.5246	
1333.0	0.0	0.0434	-0.52643	
1334.0	0.0	0.04688	-0.52679	
1335.0	0.0	0.04797	-0.53439	
1336.0	0.0	0.04962	-0.54346	
1337.0	0.0	0.04834	-0.55975	
1338.0	0.0	0.04907	-0.56598	
1339.0	0.0	0.04834	-0.56982	
1340.0	0.0	0.04962	-0.58392	
1341.0	0.0	0.05054	-0.58795	
1342.0	0.0	0.05383	-0.59528	
1343.0	0.0	0.0542	-0.60223	
1344.0	0.0	0.05493	-0.61377	
1345.0	0.0	0.05219	-0.6134	
1346.0	0.0	0.05182	-0.60571	
1347.0	0.0	0.04944	-0.608	
1348.0	0.0	0.05072	-0.60315	
1349.0	0.0	0.05054	-0.60837	
1350.0	0.0	0.05438	-0.60974	
1351.0	0.0	0.05603	-0.60498	
1352.0	0.0	0.06079	-0.61359	
1353.0	0.0	0.06335	-0.61981	
1354.0	0.0	0.06976	-0.61652	
1355.0	0.0	0.07452	-0.63135	
1356.0	0.0	0.08148	-0.63739	
1357.0	0.0	0.08533	-0.647	
1358.0	0.0	0.08972	-0.66504	
1359.0	0.0	0.09009	-0.68701	
1360.0	0.0	0.09082	-0.7066	
1361.0	0.0	0.08862	-0.73105	
1362.0	0.0	0.08771	-0.75966	
1363.0	0.0	0.08331	-0.7901	
1364.0	0.0	0.07983	-0.82031	
1365.0	0.0	0.07397	-0.85666	
1366.0	0.0	0.07104	-0.89053	
1367.0	0.0	0.06592	-0.93022	
1368.0	0.0	0.06171	-0.96149	
1369.0	0.0	0.05347	-0.99298	
1370.0	0.0	0.04559	-1.02145	
1371.0	0.0	0.03333	-1.04919	
1372.0	0.0	0.02161	-1.07126	
1373.0	0.0	0.00421	-1.09502	
1374.0	0.0	-0.0141	-1.11726	
1375.0	0.0	-0.03699	-1.13979	
1376.0	0.0	-0.06134	-1.15814	
1377.0	0.0	-0.08936	-1.17847	
1378.0	0.0	-0.11737	-1.19398	
1379.0	0.0	-0.1496	-1.21532	
1380.0	0.0	-0.18201	-1.23184	
1381.0	0.0	-0.21863	-1.24814	
1382.0	0.0	-0.25562	-1.26169	
1383.0	0.0	-0.29773	-1.27478	
1384.0	0.0	-0.34094	-1.28719	
1385.0	0.0	-0.38892	-1.29529	
1386.0	0.0	-0.43689	-1.30746	
1387.0	0.0	-0.49017	-1.3174	
1388.0	0.0	-0.54401	-1.3271	
1389.0	0.0	-0.6004	-1.33612	
1390.0	0.0	-0.65295	-1.33882	
1391.0	0.0	-0.70303	-1.34821	
1392.0	0.0	-0.74844	-1.35114	
1393.0	0.0	-0.79248	-1.35722	
1394.0	0.0	-0.8329	-1.36322	
1395.0	0.0	-0.87158	-1.37608	
1396.0	0.0	-0.90701	-1.38052	
1397.0	0.0	-0.94171	-1.38698	
1398.0	0.0	-0.97302	-1.39655	
1399.0	0.0	-1.0036	-1.4025	
1400.0	0.0	-1.03125	-1.40195	
1401.0	0.0	-1.05862	-1.40204	
1402.0	0.0	-1.08325	-1.39453	
1403.0	0.0	-1.10738	-1.37979	
1404.0	0.0	-1.12875	-1.34102	
1405.0	0.0	-1.15045	-1.30508	
1406.0	0.0	-1.1694	-1.25519	
1407.0	0.0	-1.18886	-1.21271	
1408.0	0.0	-1.20493	-1.16876	
1409.0	0.0	-1.22223	-1.13063	
1410.0	0.0	-1.23615	-1.09131	
1411.0	0.0	-1.25111	-1.07355	
1412.0	0.0	-1.26389	-1.05313	
1413.0	0.0	-1.27808	-1.05414	
1414.0	0.0	-1.2887	-1.06458	
1415.0	0.0	-1.30087	-1.08192	
1416.0	0.0	-1.30952	-1.10303	
1417.0	0.0	-1.32047	-1.12784	
1418.0	0.0	-1.32788	-1.14931	
1419.0	0.0	-1.33781	-1.17636	
1420.0	0.0	-1.3434	-1.19421	
1421.0	0.0	-1.35201	-1.21207	
1422.0	0.0	-1.35782	-1.21916	
1423.0	0.0	-1.3656	-1.21939	
1424.0	0.0	-1.37114	-1.19916	
1425.0	0.0	-1.37856	-1.17206	
1426.0	0.0	-1.38226	-1.12866	
1427.0	0.0	-1.38858	-1.08948	
1428.0	0.0	-1.39151	-1.04288	
1429.0	0.0	-1.3976	-0.99719	
1430.0	0.0	-1.40089	-0.9646	
1431.0	0.0	-1.40689	-0.94913	
1432.0	0.0	-1.41037	-0.92047	
1433.0	0.0	-1.41541	-0.91461	
1434.0	0.0	-1.41943	-0.90335	
1435.0	0.0	-1.42374	-0.90216	
1436.0	0.0	-1.42603	-0.88696	
1437.0	0.0	-1.42982	-0.88632	
1438.0	0.0	-1.43124	-0.87282	
1439.0	0.0	-1.43518	-0.88788	
1440.0	0.0	-1.43761	-0.88184	
1441.0	0.0	-1.44113	-0.88358	
1442.0	0.0	-1.44232	-0.90216	
1443.0	0.0	-1.44594	-0.92587	
1444.0	0.0	-1.44777	-0.93896	
1445.0	0.0	-1.45061	-0.96126	
1446.0	0.0	-1.45198	-0.97211	
1447.0	0.0	-1.45459	-0.98511	
1448.0	0.0	-1.45477	-0.98392	
1449.0	0.0	-1.45761	-0.98914	
1450.0	0.0	-1.4572	-0.99188	
1451.0	0.0	-1.45981	-0.98749	
1452.0	0.0	-1.46008	-0.98488	
1453.0	0.0	-1.46246	-0.9971	
1454.0	0.0	-1.4631	-0.9852	
1455.0	0.0	-1.46535	-0.98946	
1456.0	0.0	-1.46535	-0.97238	
1457.0	0.0	-1.46741	-0.96606	
1458.0	0.0	-1.46782	-0.95013	
1459.0	0.0	-1.46956	-0.95114	
1460.0	0.0	-1.47011	-0.93054	
1461.0	0.0	-1.47189	-0.94482	
1462.0	0.0	-1.47162	-0.94336	
1463.0	0.0	-1.47327	-0.95819	
1464.0	0.0	-1.4697	-0.95819	
1465.0	0.0	-1.47006	-0.96259	
1466.0	0.0	-1.46594	-0.97595	
1467.0	0.0	-1.46429	-0.98401	
1468.0	0.0	-1.4593	-0.96863	
1469.0	0.0	-1.45793	-0.96199	
1470.0	0.0	-1.45271	-0.93439	
1471.0	0.0	-1.45052	-0.91718	
1472.0	0.0	-1.44429	-0.90486	
1473.0	0.0	-1.44104	-0.87643	
1474.0	0.0	-1.43477	-0.84155	
1475.0	0.0	-1.43262	-0.82887	
1476.0	0.0	-1.42667	-0.80457	
1477.0	0.0	-1.42332	-0.78909	
1478.0	0.0	-1.41499	-0.77206	
1479.0	0.0	-1.40973	-0.73746	
1480.0	0.0	-1.40204	-0.72272	
1481.0	0.0	-1.39833	-0.69516	
1482.0	0.0	-1.39178	-0.69012	
1483.0	0.0	-1.39027	-0.66357	
1484.0	0.0	-1.38593	-0.65327	
1485.0	0.0	-1.38501	-0.62585	
1486.0	0.0	-1.38162	-0.62146	
1487.0	0.0	-1.38144	-0.60406	
1488.0	0.0	-1.37846	-0.59326	
1489.0	0.0	-1.37952	-0.58173	
1490.0	0.0	-1.37727	-0.56342	
1491.0	0.0	-1.37842	-0.53558	
1492.0	0.0	-1.37604	-0.51407	
1493.0	0.0	-1.37672	-0.5154	
1494.0	0.0	-1.37173	-0.50107	
1495.0	0.0	-1.3688	-0.48633	
1496.0	0.0	-1.36377	-0.46362	
1497.0	0.0	-1.3624	-0.47095	
1498.0	0.0	-1.35791	-0.43176	
1499.0	0.0	-1.35718	-0.42957	
1500.0	0.0	-1.35301	-0.39752	
1501.0	0.0	-1.35164	-0.41629	
1502.0	0.0	-1.34564	-0.39395	
1503.0	0.0	-1.34235	-0.37628	
1504.0	0.0	-1.33429	-0.36145	
1505.0	0.0	-1.32875	-0.32922	
1506.0	0.0	-1.31799	-0.31787	
1507.0	0.0	-1.30865	-0.28107	
1508.0	0.0	-1.29355	-0.27777	
1509.0	0.0	-1.28073	-0.26294	
1510.0	0.0	-1.26366	-0.23016	
1511.0	0.0	-1.24937	-0.21826	
1512.0	0.0	-1.23134	-0.21552	
1513.0	0.0	-1.21417	-0.2016	
1514.0	0.0	-1.19055	-0.18896	
1515.0	0.0	-1.16666	-0.16223	
1516.0	0.0	-1.13571	-0.15198	
1517.0	0.0	-1.1055	-0.15308	
1518.0	0.0	-1.0719	-0.12799	
1519.0	0.0	-1.04077	-0.14319	
1520.0	0.0	-1.00635	-0.13037	
1521.0	0.0	-0.97284	-0.12543	
1522.0	0.0	-0.93343	-0.13184	
1523.0	0.0	-0.8941	-0.13037	
1524.0	0.0	-0.84796	-0.14136	
1525.0	0.0	-0.80214	-0.15784	
1526.0	0.0	-0.75092	-0.16974	
1527.0	0.0	-0.7002	-0.1875	
1528.0	0.0	-0.64508	-0.20251	
1529.0	0.0	-0.58923	-0.21057	
1530.0	0.0	-0.52625	-0.2146	
1531.0	0.0	-0.46069	-0.23456	
1532.0	0.0	-0.38525	-0.23584	
1533.0	0.0	-0.30322	-0.23804	
1534.0	0.0	-0.20874	-0.2287	
1535.0	0.0	-0.11041	-0.2038	
1536.0	0.0	-0.01776	-0.16937	
1537.0	0.0	0.07031	-0.13788	
1538.0	0.0	0.15253	-0.0943	
1539.0	0.0	0.23108	-0.0509	
1540.0	0.0	0.30396	0.00385	
1541.0	0.0	0.37079	0.06024	
1542.0	0.0	0.43451	0.12506	
1543.0	0.0	0.49255	0.18695	
1544.0	0.0	0.54932	0.25598	
1545.0	0.0	0.60278	0.32153	
1546.0	0.0	0.65277	0.39075	
1547.0	0.0	0.6991	0.44806	
1548.0	0.0	0.74414	0.51031	
1549.0	0.0	0.78516	0.55518	
1550.0	0.0	0.82434	0.60919	
1551.0	0.0	0.86224	0.65918	
1552.0	0.0	0.89722	0.70422	
1553.0	0.0	0.93018	0.74725	
1554.0	0.0	0.9624	0.79193	
1555.0	0.0	0.99133	0.83057	
1556.0	0.0	1.02063	0.86499	
1557.0	0.0	1.04663	0.89392	
1558.0	0.0	1.07227	0.93018	
1559.0	0.0	1.09424	0.95746	
1560.0	0.0	1.11768	0.98199	
1561.0	0.0	1.13708	1.00049	
1562.0	0.0	1.15649	1.01404	
1563.0	0.0	1.17407	1.02979	
1564.0	0.0	1.19275	1.04553	
1565.0	0.0	1.20996	1.05981	
1566.0	0.0	1.22607	1.0719	
1567.0	0.0	1.24072	1.08728	
1568.0	0.0	1.25537	1.10522	
1569.0	0.0	1.26709	1.12024	
1570.0	0.0	1.28027	1.14075	
1571.0	0.0	1.28906	1.15686	
1572.0	0.0	1.2995	1.16913	
1573.0	0.0	1.30792	1.18872	
1574.0	0.0	1.31763	1.19879	
1575.0	0.0	1.32605	1.21564	
1576.0	0.0	1.33594	1.23047	
1577.0	0.0	1.34399	1.24127	
1578.0	0.0	1.35315	1.25427	
1579.0	0.0	1.35938	1.26526	
1580.0	0.0	1.3678	1.28101	
1581.0	0.0	1.37292	1.28934	
1582.0	0.0	1.37988	1.3017	
1583.0	0.0	1.38501	1.30664	
1584.0	0.0	1.39087	1.32019	
1585.0	0.0	1.39343	1.32239	
1586.0	0.0	1.39856	1.33621	
1587.0	0.0	1.39838	1.33228	
1588.0	0.0	1.40442	1.34253	
1589.0	0.0	1.40515	1.33813	
1590.0	0.0	1.41064	1.35223	
1591.0	0.0	1.41028	1.35388	
1592.0	0.0	1.41229	1.35938	
1593.0	0.0	1.41064	1.36212	
1594.0	0.0	1.41449	1.36597	
1595.0	0.0	1.41431	1.36652	
1596.0	0.0	1.41907	1.35736	
1597.0	0.0	1.42017	1.3526	
1598.0	0.0	1.42438	1.34656	
1599.0	0.0	1.4231	1.32715	
1600.0	0.0	1.42456	1.32275	
1601.0	0.0	1.422	1.31873	
1602.0	0.0	1.41943	1.32129	
1603.0	0.0	1.41394	1.3158	
1604.0	0.0	1.41357	1.31433	
1605.0	0.0	1.40698	1.3125	
1606.0	0.0	1.40332	1.31085	
1607.0	0.0	1.396	1.30225	
1608.0	0.0	1.3916	1.3011	
1609.0	0.0	1.38281	1.29492	
1610.0	0.0	1.37769	1.29565	
1611.0	0.0	1.3689	1.29675	
1612.0	0.0	1.36816	1.30334	
1613.0	0.0	1.3689	1.29913	
1614.0	0.0	1.37769	1.31085	
1615.0	0.0	1.38538	1.30701	
1616.0	0.0	1.39453	1.30847	
1617.0	0.0	1.40186	1.31067	
1618.0	0.0	1.40918	1.3092	
1619.0	0.0	1.41376	1.29932	
1620.0	0.0	1.42017	1.30042	
1621.0	0.0	1.4231	1.2854	
1622.0	0.0	1.42896	1.27441	
1623.0	0.0	1.42896	1.26416	
1624.0	0.0	1.43408	1.25317	
1625.0	0.0	1.43481	1.23074	
1626.0	0.0	1.43921	1.21582	
1627.0	0.0	1.43701	1.19421	
1628.0	0.0	1.43994	1.18213	
1629.0	0.0	1.43848	1.15576	
1630.0	0.0	1.43921	1.1391	
1631.0	0.0	1.43555	1.11255	
1632.0	0.0	1.43445	1.0946	
1633.0	0.0	1.42932	1.06897	
1634.0	0.0	1.43005	1.05084	
1635.0	0.0	1.42859	1.02539	
1636.0	0.0	1.43005	1.01019	
1637.0	0.0	1.43042	0.98877	
1638.0	0.0	1.43298	0.97083	
1639.0	0.0	1.43262	0.95068	
1640.0	0.0	1.43738	0.93439	
1641.0	0.0	1.43848	0.91296	
1642.0	0.0	1.44324	0.89612	
1643.0	0.0	1.44305	0.8703	
1644.0	0.0	1.44617	0.8573	
1645.0	0.0	1.4458	0.83862	
1646.0	0.0	1.4502	0.81949	
1647.0	0.0	1.44946	0.79907	
1648.0	0.0	1.45294	0.78479	
1649.0	0.0	1.45422	0.75531	
1650.0	0.0	1.45715	0.7467	
1651.0	0.0	1.45715	0.72729	
1652.0	0.0	1.46008	0.71375	
1653.0	0.0	1.45898	0.69891	
1654.0	0.0	1.46118	0.68884	
1655.0	0.0	1.45917	0.66943	
1656.0	0.0	1.46191	0.65808	
1657.0	0.0	1.45862	0.64417	
1658.0	0.0	1.45825	0.6394	
1659.0	0.0	1.45459	0.61871	
1660.0	0.0	1.45496	0.6167	
1661.0	0.0	1.45349	0.60077	
1662.0	0.0	1.45605	0.58626	
1663.0	0.0	1.45605	0.5799	
1664.0	0.0	1.45825	0.5636	
1665.0	0.0	1.45734	0.54822	
1666.0	0.0	1.45898	0.55096	
1667.0	0.0	1.45679	0.52185	
1668.0	0.0	1.45825	0.50922	
1669.0	0.0	1.45459	0.50537	
1670.0	0.0	1.45752	0.47681	
1671.0	0.0	1.45258	0.45502	
1672.0	0.0	1.4502	0.4422	
1673.0	0.0	1.44287	0.41675	
1674.0	0.0	1.43774	0.40704	
1675.0	0.0	1.42548	0.36804	
1676.0	0.0	1.41577	0.35779	
1677.0	0.0	1.39856	0.31238	
1678.0	0.0	1.38391	0.28857	
1679.0	0.0	1.36377	0.26715	
1680.0	0.0	1.34509	0.2384	
1681.0	0.0	1.32129	0.21075	
1682.0	0.0	1.30005	0.20251	
1683.0	0.0	1.27496	0.16956	
1684.0	0.0	1.25171	0.15344	
1685.0	0.0	1.22498	0.12268	
1686.0	0.0	1.19971	0.10638	
1687.0	0.0	1.16821	0.08313	
1688.0	0.0	1.13965	0.07855	
1689.0	0.0	1.10706	0.05841	
1690.0	0.0	1.07849	0.04907	
1691.0	0.0	1.04755	0.03461	
1692.0	0.0	1.02026	0.02362	
1693.0	0.0	0.99097	0.0141	
1694.0	0.0	0.96313	0.00586	
1695.0	0.0	0.93237	-0.00201	
1696.0	0.0	0.90472	-0.00604	
1697.0	0.0	0.87341	-0.00696	
1698.0	0.0	0.84613	-0.02124	
1699.0	0.0	0.81482	-0.03241	
1700.0	0.0	0.78882	-0.03278	
1701.0	0.0	0.75824	-0.04761	
1702.0	0.0	0.73462	-0.04431	
1703.0	0.0	0.70972	-0.07306	
1704.0	0.0	0.69086	-0.08698	
1705.0	0.0	0.66943	-0.10895	
1706.0	0.0	0.65369	-0.11865	
1707.0	0.0	0.63519	-0.15271	
1708.0	0.0	0.61963	-0.17212	
1709.0	0.0	0.59949	-0.1897	
1710.0	0.0	0.58173	-0.20544	
1711.0	0.0	0.56067	-0.23419	
1712.0	0.0	0.54346	-0.24756	
1713.0	0.0	0.52441	-0.26184	
1714.0	0.0	0.50922	-0.27209	
1715.0	0.0	0.49036	-0.27393	
1716.0	0.0	0.47681	-0.27832	
1717.0	0.0	0.45996	-0.29791	
1718.0	0.0	0.44714	-0.30066	
1719.0	0.0	0.43176	-0.30121	
1720.0	0.0	0.42114	-0.31201	
1721.0	0.0	0.40759	-0.32309	
1722.0	0.0	0.39771	-0.32666	
1723.0	0.0	0.38269	-0.33582	
1724.0	0.0	0.37024	-0.33234	
1725.0	0.0	0.35303	-0.34222	
1726.0	0.0	0.33875	-0.35028	
1727.0	0.0	0.32135	-0.37079	
1728.0	0.0	0.30762	-0.36987	
1729.0	0.0	0.29004	-0.38049	
1730.0	0.0	0.27557	-0.38297	
1731.0	0.0	0.25708	-0.39844	
1732.0	0.0	0.24152	-0.39093	
1733.0	0.0	0.22192	-0.39203	
1734.0	0.0	0.2049	-0.39606	
1735.0	0.0	0.18402	-0.39789	
1736.0	0.0	0.16534	-0.38947	
1737.0	0.0	0.14319	-0.39752	
1738.0	0.0	0.12469	-0.40741	
1739.0	0.0	0.10272	-0.40594	
1740.0	0.0	0.08423	-0.41029	
1741.0	0.0	0.06299	-0.42078	
1742.0	0.0	0.04468	-0.4314	
1743.0	0.0	0.0238	-0.44394	
1744.0	0.0	0.00531	-0.45117	
1745.0	0.0	-0.01611	-0.45612	
1746.0	0.0	-0.03369	-0.46619	
1747.0	0.0	-0.05621	-0.47571	
1748.0	0.0	-0.07397	-0.48523	
1749.0	0.0	-0.09521	-0.49878	
1750.0	0.0	-0.11133	-0.49951	
1751.0	0.0	-0.12964	-0.51599	
1752.0	0.0	-0.14319	-0.52441	
1753.0	0.0	-0.15875	-0.53943	
1754.0	0.0	-0.17029	-0.55188	
1755.0	0.0	-0.18402	-0.56982	
1756.0	0.0	-0.19226	-0.5907	
1757.0	0.0	-0.20343	-0.61102	
1758.0	0.0	-0.21057	-0.62659	
1759.0	0.0	-0.21899	-0.64142	
1760.0	0.0	-0.22321	-0.64563	
1761.0	0.0	-0.23035	-0.66174	
1762.0	0.0	-0.23383	-0.67529	
1763.0	0.0	-0.24115	-0.69232	
1764.0	0.0	-0.24481	-0.6969	
1765.0	0.0	-0.25122	-0.71608	
1766.0	0.0	-0.2525	-0.72931	
1767.0	0.0	-0.25708	-0.74414	
1768.0	0.0	-0.25781	-0.74652	
1769.0	0.0	-0.26422	-0.76428	
1770.0	0.0	-0.26688	-0.77527	
1771.0	0.0	-0.27411	-0.7999	
1772.0	0.0	-0.27777	-0.81107	
1773.0	0.0	-0.28528	-0.82123	
1774.0	0.0	-0.29004	-0.83752	
1775.0	0.0	-0.297	-0.84897	
1776.0	0.0	-0.30084	-0.85803	
1777.0	0.0	-0.30981	-0.86948	
1778.0	0.0	-0.31567	-0.86884	
1779.0	0.0	-0.32556	-0.86298	
1780.0	0.0	-0.33142	-0.86673	
1781.0	0.0	-0.34058	-0.86133	
1782.0	0.0	-0.3446	-0.85867	
1783.0	0.0	-0.35266	-0.86398	
1784.0	0.0	-0.35486	-0.85986	
1785.0	0.0	-0.36292	-0.85556	
1786.0	0.0	-0.36768	-0.85382	
1787.0	0.0	-0.37646	-0.86343	
1788.0	0.0	-0.38251	-0.86499	
1789.0	0.0	-0.3924	-0.87149	
1790.0	0.0	-0.39844	-0.86691	
1791.0	0.0	-0.40796	-0.87341	
1792.0	0.0	-0.41382	-0.87158	
1793.0	0.0	-0.42242	-0.87579	
1794.0	0.0	-0.42719	-0.87213	
1795.0	0.0	-0.43542	-0.87428	
1796.0	0.0	-0.43927	-0.87598	
1797.0	0.0	-0.44696	-0.88257	
1798.0	0.0	-0.4519	-0.88275	
1799.0	0.0	-0.46069	-0.88655	
1800.0	0.0	-0.46436	-0.89008	
1801.0	0.0	-0.47076	-0.89255	
1802.0	0.0	-0.47388	-0.89557	
1803.0	0.0	-0.4812	-0.9115	
1804.0	0.0	-0.48523	-0.91223	
1805.0	0.0	-0.49365	-0.91434	
1806.0	0.0	-0.49805	-0.91534	
1807.0	0.0	-0.50684	-0.91928	
1808.0	0.0	-0.51123	-0.91791	
1809.0	0.0	-0.5202	-0.91736	
1810.0	0.0	-0.52588	-0.91644	
1811.0	0.0	-0.5354	-0.91113	
1812.0	0.0	-0.54089	-0.91187	
1813.0	0.0	-0.54996	-0.91516	
1814.0	0.0	-0.55499	-0.91049	
1815.0	0.0	-0.56323	-0.91086	
1816.0	0.0	-0.5679	-0.90839	
1817.0	0.0	-0.57642	-0.90546	
1818.0	0.0	-0.58044	-0.89832	
1819.0	0.0	-0.5885	-0.8996	
1820.0	0.0	-0.59253	-0.88326	
1821.0	0.0	-0.60022	-0.88568	
1822.0	0.0	-0.60406	-0.87575	
1823.0	0.0	-0.61066	-0.8736	
1824.0	0.0	-0.61487	-0.86737	
1825.0	0.0	-0.62109	-0.86444	
1826.0	0.0	-0.62347	-0.86032	
1827.0	0.0	-0.6275	-0.86023	
1828.0	0.0	-0.62604	-0.85199	
1829.0	0.0	-0.62787	-0.85597	
1830.0	0.0	-0.62531	-0.8481	
1831.0	0.0	-0.6275	-0.85355	
1832.0	0.0	-0.62659	-0.84869	
1833.0	0.0	-0.62823	-0.85153	
1834.0	0.0	-0.62549	-0.84714	
1835.0	0.0	-0.62585	-0.85098	
1836.0	0.0	-0.62256	-0.84503	
1837.0	0.0	-0.62128	-0.84718	
1838.0	0.0	-0.61542	-0.83826	
1839.0	0.0	-0.61395	-0.83221	
1840.0	0.0	-0.60974	-0.8172	
1841.0	0.0	-0.60992	-0.80823	
1842.0	0.0	-0.60553	-0.78918	
1843.0	0.0	-0.60361	-0.78163	
1844.0	0.0	-0.59619	-0.76428	
1845.0	0.0	-0.59198	-0.7576	
1846.0	0.0	-0.58328	-0.74561	
1847.0	0.0	-0.5788	-0.74506	
1848.0	0.0	-0.57001	-0.73746	
1849.0	0.0	-0.56598	-0.73993	
1850.0	0.0	-0.55701	-0.73407	
1851.0	0.0	-0.55334	-0.73627	
1852.0	0.0	-0.54529	-0.72986	
1853.0	0.0	-0.54236	-0.72958	
1854.0	0.0	-0.5365	-0.72308	
1855.0	0.0	-0.53558	-0.71933	
1856.0	0.0	-0.53174	-0.7121	
1857.0	0.0	-0.53064	-0.70857	
1858.0	0.0	-0.5257	-0.69928	
1859.0	0.0	-0.5246	-0.69727	
1860.0	0.0	-0.51965	-0.68738	
1861.0	0.0	-0.51764	-0.68481	
1862.0	0.0	-0.51086	-0.67767	
1863.0	0.0	-0.5072	-0.67657	
1864.0	0.0	-0.49951	-0.66833	
1865.0	0.0	-0.49585	-0.66751	
1866.0	0.0	-0.48889	-0.65845	
1867.0	0.0	-0.48651	-0.65662	
1868.0	0.0	-0.4812	-0.6459	
1869.0	0.0	-0.47955	-0.64362	
1870.0	0.0	-0.47534	-0.63354	
1871.0	0.0	-0.47534	-0.63098	
1872.0	0.0	-0.47186	-0.62128	
1873.0	0.0	-0.47278	-0.61789	
1874.0	0.0	-0.46967	-0.61011	
1875.0	0.0	-0.46967	-0.60883	
1876.0	0.0	-0.46619	-0.5993	
1877.0	0.0	-0.46582	-0.59555	
1878.0	0.0	-0.4612	-0.58539	
1879.0	0.0	-0.46124	-0.58044	
1880.0	0.0	-0.45607	-0.57129	
1881.0	0.0	-0.4552	-0.5657	
1882.0	0.0	-0.44971	-0.5603	
1883.0	0.0	-0.44788	-0.55692	
1884.0	0.0	-0.44257	-0.55014	
1885.0	0.0	-0.4422	-0.54822	
1886.0	0.0	-0.43689	-0.54016	
1887.0	0.0	-0.43488	-0.54034	
1888.0	0.0	-0.427	-0.53302	
1889.0	0.0	-0.42188	-0.52954	
1890.0	0.0	-0.41309	-0.52094	
1891.0	0.0	-0.40759	-0.51489	
1892.0	0.0	-0.39954	-0.50592	
1893.0	0.0	-0.39441	-0.50226	
1894.0	0.0	-0.38525	-0.49457	
1895.0	0.0	-0.37921	-0.49438	
1896.0	0.0	-0.36804	-0.48486	
1897.0	0.0	-0.36017	-0.48779	
1898.0	0.0	-0.34827	-0.47809	
1899.0	0.0	-0.34094	-0.47626	
1900.0	0.0	-0.33105	-0.46051	
1901.0	0.0	-0.32556	-0.45612	
1902.0	0.0	-0.31641	-0.44073	
1903.0	0.0	-0.31055	-0.43231	
1904.0	0.0	-0.30011	-0.41766	
1905.0	0.0	-0.29242	-0.40833	
1906.0	0.0	-0.28088	-0.39944	
1907.0	0.0	-0.27429	-0.39871	
1908.0	0.0	-0.26477	-0.38928	
1909.0	0.0	-0.25983	-0.39056	
1910.0	0.0	-0.25122	-0.38818	
1911.0	0.0	-0.24646	-0.388	
1912.0	0.0	-0.23877	-0.38232	
1913.0	0.0	-0.23474	-0.38489	
1914.0	0.0	-0.22723	-0.37811	
1915.0	0.0	-0.2254	-0.37848	
1916.0	0.0	-0.21973	-0.36639	
1917.0	0.0	-0.21844	-0.36621	
1918.0	0.0	-0.21277	-0.35577	
1919.0	0.0	-0.2113	-0.35834	
1920.0	0.0	-0.20581	-0.35358	
1921.0	0.0	-0.2049	-0.35266	
1922.0	0.0	-0.19849	-0.34607	
1923.0	0.0	-0.19556	-0.34973	
1924.0	0.0	-0.18842	-0.34378	
1925.0	0.0	-0.18512	-0.34735	
1926.0	0.0	-0.1778	-0.34268	
1927.0	0.0	-0.17578	-0.34625	
1928.0	0.0	-0.17029	-0.34058	
1929.0	0.0	-0.16901	-0.34497	
1930.0	0.0	-0.16406	-0.33893	
1931.0	0.0	-0.16351	-0.33902	
1932.0	0.0	-0.15967	-0.33234	
1933.0	0.0	-0.1604	-0.33142	
1934.0	0.0	-0.15674	-0.32611	
1935.0	0.0	-0.15802	-0.32373	
1936.0	0.0	-0.15527	-0.32043	
1937.0	0.0	-0.15747	-0.3208	
1938.0	0.0	-0.15601	-0.31293	
1939.0	0.0	-0.15857	-0.31036	
1940.0	0.0	-0.15747	-0.3056	
1941.0	0.0	-0.16022	-0.30377	
1942.0	0.0	-0.15912	-0.29865	
1943.0	0.0	-0.16113	-0.29773	
1944.0	0.0	-0.15894	-0.29388	
1945.0	0.0	-0.16003	-0.29608	
1946.0	0.0	-0.15729	-0.2851	
1947.0	0.0	-0.1571	-0.29132	
1948.0	0.0	-0.15161	-0.28601	
1949.0	0.0	-0.14795	-0.28491	
1950.0	0.0	-0.13989	-0.28583	
1951.0	0.0	-0.13586	-0.28711	
1952.0	0.0	-0.12854	-0.28217	
1953.0	0.0	-0.12653	-0.28564	
1954.0	0.0	-0.12103	-0.2796	
1955.0	0.0	-0.11975	-0.28564	
1956.0	0.0	-0.11279	-0.28326	
1957.0	0.0	-0.10986	-0.28894	
1958.0	0.0	-0.10107	-0.28802	
1959.0	0.0	-0.09521	-0.29041	
1960.0	0.0	-0.08661	-0.28381	
1961.0	0.0	-0.08313	-0.28125	
1962.0	0.0	-0.07654	-0.26898	
1963.0	0.0	-0.07471	-0.26257	
1964.0	0.0	-0.06702	-0.25031	
1965.0	0.0	-0.06317	-0.24536	
1966.0	0.0	-0.05347	-0.23291	
1967.0	0.0	-0.04871	-0.22998	
1968.0	0.0	-0.03955	-0.22366	
1969.0	0.0	-0.03571	-0.22668	
1970.0	0.0	-0.02838	-0.22293	
1971.0	0.0	-0.0249	-0.22375	
1972.0	0.0	-0.01813	-0.22083	
1973.0	0.0	-0.0163	-0.22266	
1974.0	0.0	-0.00952	-0.2168	
1975.0	0.0	-0.00714	-0.21899	
1976.0	0.0	-0.00183	-0.2124	
1977.0	0.0	-0.0011	-0.21332	
1978.0	0.0	0.00385	-0.20746	
1979.0	0.0	0.00366	-0.20874	
1980.0	0.0	0.00787	-0.20068	
1981.0	0.0	0.00751	-0.20105	
1982.0	0.0	0.01099	-0.19171	
1983.0	0.0	0.01282	-0.19043	
1984.0	0.0	0.01849	-0.18311	
1985.0	0.0	0.02124	-0.18718	
1986.0	0.0	0.0282	-0.18036	
1987.0	0.0	0.03113	-0.18585	
1988.0	0.0	0.03809	-0.17944	
1989.0	0.0	0.04047	-0.18109	
1990.0	0.0	0.04614	-0.17249	
1991.0	0.0	0.04797	-0.17157	
1992.0	0.0	0.0531	-0.1615	
1993.0	0.0	0.05438	-0.16003	
1994.0	0.0	0.05969	-0.14941	
1995.0	0.0	0.06024	-0.1474	
1996.0	0.0	0.06519	-0.13879	
1997.0	0.0	0.06592	-0.13751	
1998.0	0.0	0.07086	-0.12891	
1999.0	0.0	0.07104	-0.12067	
2000.0	0.0	0.07526	-0.10895	
2001.0	0.0	0.07434	-0.10986	
2002.0	0.0	0.078	-0.09521	
2003.0	0.0	0.07709	-0.09448	
2004.0	0.0	0.08002	-0.08167	
2005.0	0.0	0.0791	-0.0791	
2006.0	0.0	0.08203	-0.07233	
2007.0	0.0	0.07837	-0.07791	
2008.0	0.0	0.08002	-0.06958	
2009.0	0.0	0.07764	-0.06757	
2010.0	0.0	0.08167	-0.06592	
2011.0	0.0	0.08258	-0.07031	
2012.0	0.0	0.08844	-0.06555	
2013.0	0.0	0.08972	-0.06537	
2014.0	0.0	0.09393	-0.0683	
2015.0	0.0	0.09448	-0.07214	
2016.0	0.0	0.09961	-0.06573	
2017.0	0.0	0.10126	-0.07489	
2018.0	0.0	0.10785	-0.07471	
2019.0	0.0	0.11206	-0.08258	
2020.0	0.0	0.12158	-0.08569	
2021.0	0.0	0.12543	-0.08752	
2022.0	0.0	0.13202	-0.07837	
2023.0	0.0	0.13293	-0.08057	
2024.0	0.0	0.13751	-0.07013	
2025.0	0.0	0.13843	-0.07086	
2026.0	0.0	0.14502	-0.06308	
2027.0	0.0	0.14722	-0.06042	
2028.0	0.0	0.15381	-0.05621	
2029.0	0.0	0.15509	-0.06592	
2030.0	0.0	0.1604	-0.06464	
2031.0	0.0	0.1604	-0.07553	
2032.0	0.0	0.16479	-0.07654	
2033.0	0.0	0.16443	-0.08505	
2034.0	0.0	0.16791	-0.08569	
2035.0	0.0	0.16772	-0.0965	
2036.0	0.0	0.17084	-0.10071	
2037.0	0.0	0.16882	-0.10858	
2038.0	0.0	0.17065	-0.1106	
2039.0	0.0	0.16791	-0.12158	
2040.0	0.0	0.16919	-0.12488	
2041.0	0.0	0.16553	-0.13586	
2042.0	0.0	0.16663	-0.13806	
2043.0	0.0	0.16425	-0.14795	
2044.0	0.0	0.16699	-0.15106	
2045.0	0.0	0.16699	-0.16241	
2046.0	0.0	0.17084	-0.1658	
2047.0	0.0	0.16992	-0.18439	
2048.0	0.0	0.17285	-0.18896	
2049.0	0.0	0.17212	-0.1972	
2050.0	0.0	0.1745	-0.20233	
2051.0	0.0	0.17285	-0.21204	
2052.0	0.0	0.17432	-0.21313	
2053.0	0.0	0.17157	-0.2276	
2054.0	0.0	0.17267	-0.23071	
2055.0	0.0	0.16882	-0.23767	
2056.0	0.0	0.16846	-0.23584	
2057.0	0.0	0.16406	-0.24957	
2058.0	0.0	0.16333	-0.25433	
2059.0	0.0	0.15784	-0.26605	
2060.0	0.0	0.15656	-0.26312	
2061.0	0.0	0.15033	-0.27539	
2062.0	0.0	0.14813	-0.28052	
2063.0	0.0	0.14154	-0.2937	
2064.0	0.0	0.13843	-0.29636	
2065.0	0.0	0.12982	-0.30542	
2066.0	0.0	0.12524	-0.30212	
2067.0	0.0	0.11609	-0.31384	
2068.0	0.0	0.11078	-0.32227	
2069.0	0.0	0.10107	-0.33453	
2070.0	0.0	0.09595	-0.34039	
2071.0	0.0	0.08899	-0.34296	
2072.0	0.0	0.08698	-0.35065	
2073.0	0.0	0.08203	-0.36328	
2074.0	0.0	0.08057	-0.37866	
2075.0	0.0	0.07434	-0.38983	
2076.0	0.0	0.07123	-0.38818	
2077.0	0.0	0.06482	-0.39743	
2078.0	0.0	0.06409	-0.40283	
2079.0	0.0	0.05988	-0.41235	
2080.0	0.0	0.06189	-0.41748	
2081.0	0.0	0.06079	-0.4303	
2082.0	0.0	0.0639	-0.42444	
2083.0	0.0	0.06189	-0.4238	
2084.0	0.0	0.06262	-0.42737	
2085.0	0.0	0.0575	-0.41821	
2086.0	0.0	0.05878	-0.41034	
2087.0	0.0	0.0575	-0.40137	
2088.0	0.0	0.06189	-0.3988	
2089.0	0.0	0.0639	-0.39331	
2090.0	0.0	0.0694	-0.39093	
2091.0	0.0	0.0705	-0.39551	
2092.0	0.0	0.07471	-0.38837	
2093.0	0.0	0.07507	-0.3847	
2094.0	0.0	0.07837	-0.38013	
2095.0	0.0	0.07764	-0.39459	
2096.0	0.0	0.08167	-0.38745	
2097.0	0.0	0.0813	-0.3913	
2098.0	0.0	0.08533	-0.38818	
2099.0	0.0	0.08459	-0.38379	
2100.0	0.0	0.08826	-0.38416	
2101.0	0.0	0.08643	-0.38429	
2102.0	0.0	0.08917	-0.39056	
2103.0	0.0	0.08716	-0.3924	
2104.0	0.0	0.08936	-0.38397	
2105.0	0.0	0.08862	-0.38269	
2106.0	0.0	0.09229	-0.38159	
2107.0	0.0	0.0921	-0.39093	
2108.0	0.0	0.0954	-0.3891	
2109.0	0.0	0.09412	-0.39001	
2110.0	0.0	0.09705	-0.38397	
2111.0	0.0	0.09448	-0.38553	
2112.0	0.0	0.09613	-0.38031	
2113.0	0.0	0.09375	-0.39001	
2114.0	0.0	0.09485	-0.38654	
2115.0	0.0	0.09174	-0.37958	
2116.0	0.0	0.09247	-0.38008	
2117.0	0.0	0.08899	-0.37985	
2118.0	0.0	0.08936	-0.37408	
2119.0	0.0	0.08588	-0.36713	
2120.0	0.0	0.08624	-0.35889	
2121.0	0.0	0.0824	-0.36035	
2122.0	0.0	0.0835	-0.35248	
2123.0	0.0	0.07983	-0.35834	
2124.0	0.0	0.08148	-0.3501	
2125.0	0.0	0.07874	-0.35138	
2126.0	0.0	0.08057	-0.34167	
2127.0	0.0	0.07874	-0.33508	
2128.0	0.0	0.08057	-0.32446	
2129.0	0.0	0.07727	-0.32904	
2130.0	0.0	0.07855	-0.31604	
2131.0	0.0	0.07526	-0.31036	
2132.0	0.0	0.07727	-0.30121	
2133.0	0.0	0.07635	-0.30322	
2134.0	0.0	0.08093	-0.29608	
2135.0	0.0	0.0824	-0.29865	
2136.0	0.0	0.08789	-0.28601	
2137.0	0.0	0.08752	-0.29517	
2138.0	0.0	0.09119	-0.28409	
2139.0	0.0	0.09082	-0.28885	
2140.0	0.0	0.09521	-0.28867	
2141.0	0.0	0.0965	-0.2959	
2142.0	0.0	0.10217	-0.28748	
2143.0	0.0	0.10474	-0.29645	
2144.0	0.0	0.11023	-0.28949	
2145.0	0.0	0.11023	-0.28326	
2146.0	0.0	0.11316	-0.28098	
2147.0	0.0	0.11169	-0.27612	
2148.0	0.0	0.11499	-0.26202	
2149.0	0.0	0.11517	-0.25873	
2150.0	0.0	0.11975	-0.25488	
2151.0	0.0	0.12012	-0.25598	
2152.0	0.0	0.12433	-0.24792	
2153.0	0.0	0.12415	-0.25507	
2154.0	0.0	0.12708	-0.25598	
2155.0	0.0	0.12634	-0.25598	
2156.0	0.0	0.12964	-0.26074	
2157.0	0.0	0.12891	-0.2644	
2158.0	0.0	0.13257	-0.25818	
2159.0	0.0	0.12982	-0.26147	
2160.0	0.0	0.13184	-0.24976	
2161.0	0.0	0.12927	-0.25992	
2162.0	0.0	0.13202	-0.25763	
2163.0	0.0	0.12964	-0.25978	
2164.0	0.0	0.1311	-0.25662	
2165.0	0.0	0.12836	-0.26331	
2166.0	0.0	0.1311	-0.25873	
2167.0	0.0	0.12891	-0.26202	
2168.0	0.0	0.13184	-0.26404	
2169.0	0.0	0.12982	-0.27411	
2170.0	0.0	0.13257	-0.27356	
2171.0	0.0	0.12964	-0.28656	
2172.0	0.0	0.13037	-0.29141	
2173.0	0.0	0.12634	-0.29755	
2174.0	0.0	0.12689	-0.30139	
2175.0	0.0	0.12231	-0.31348	
2176.0	0.0	0.12323	-0.3089	
2177.0	0.0	0.11902	-0.33142	
2178.0	0.0	0.12085	-0.34186	
2179.0	0.0	0.11865	-0.35834	
2180.0	0.0	0.12231	-0.36255	
2181.0	0.0	0.1225	-0.39111	
2182.0	0.0	0.12671	-0.39917	
2183.0	0.0	0.12598	-0.40887	
2184.0	0.0	0.1311	-0.40265	
2185.0	0.0	0.12982	-0.41711	
2186.0	0.0	0.1333	-0.41762	
2187.0	0.0	0.13239	-0.42581	
2188.0	0.0	0.13477	-0.41876	
2189.0	0.0	0.13403	-0.43707	
2190.0	0.0	0.13696	-0.43927	
2191.0	0.0	0.13513	-0.45081	
2192.0	0.0	0.13916	-0.44971	
2193.0	0.0	0.14026	-0.46326	
2194.0	0.0	0.14941	-0.45978	
2195.0	0.0	0.1571	-0.47955	
2196.0	0.0	0.17175	-0.49017	
2197.0	0.0	0.18402	-0.49786	
2198.0	0.0	0.20288	-0.50208	
2199.0	0.0	0.22156	-0.51965	
2200.0	0.0	0.24976	-0.52515	
2201.0	0.0	0.27759	-0.54474	
2202.0	0.0	0.31183	-0.55902	
2203.0	0.0	0.34387	-0.56726	
2204.0	0.0	0.38013	-0.5636	
2205.0	0.0	0.41309	-0.55353	
2206.0	0.0	0.45007	-0.52716	
2207.0	0.0	0.48303	-0.49892	
2208.0	0.0	0.51782	-0.466	
2209.0	0.0	0.55023	-0.4292	
2210.0	0.0	0.58502	-0.38287	
2211.0	0.0	0.61487	-0.34314	
2212.0	0.0	0.64636	-0.2959	
2213.0	0.0	0.67236	-0.26917	
2214.0	0.0	0.69983	-0.22797	
2215.0	0.0	0.72217	-0.1983	
2216.0	0.0	0.74652	-0.15198	
2217.0	0.0	0.76611	-0.13202	
2218.0	0.0	0.78735	-0.08405	
2219.0	0.0	0.802	-0.06207	
2220.0	0.0	0.81885	-0.02124	
2221.0	0.0	0.83203	0.01501	
2222.0	0.0	0.84485	0.03882	
2223.0	0.0	0.85254	0.06134	
2224.0	0.0	0.86279	0.09814	
2225.0	0.0	0.86609	0.10556	
2226.0	0.0	0.87195	0.14044	
2227.0	0.0	0.87012	0.15088	
2228.0	0.0	0.86938	0.16132	
2229.0	0.0	0.86169	0.1712	
2230.0	0.0	0.85547	0.19098	
2231.0	0.0	0.84027	0.19501	
2232.0	0.0	0.82764	0.19299	
2233.0	0.0	0.80603	0.19666	
2234.0	0.0	0.78589	0.2124	
2235.0	0.0	0.75916	0.19611	
2236.0	0.0	0.73407	0.19885	
2237.0	0.0	0.70349	0.18951	
2238.0	0.0	0.67529	0.18292	
2239.0	0.0	0.64197	0.16626	
2240.0	0.0	0.6123	0.15784	
2241.0	0.0	0.57935	0.14447	
2242.0	0.0	0.54858	0.13733	
2243.0	0.0	0.51471	0.12616	
2244.0	0.0	0.48578	0.11719	
2245.0	0.0	0.45337	0.10364	
2246.0	0.0	0.42572	0.09604	
2247.0	0.0	0.39532	0.08038	
2248.0	0.0	0.37061	0.07288	
2249.0	0.0	0.34241	0.05823	
2250.0	0.0	0.31934	0.05072	
2251.0	0.0	0.2926	0.03534	
2252.0	0.0	0.27173	0.02234	
2253.0	0.0	0.24683	-0.00037	
2254.0	0.0	0.22632	-0.01758	
2255.0	0.0	0.20251	-0.04797	
2256.0	0.0	0.18274	-0.07361	
2257.0	0.0	0.1593	-0.10309	
2258.0	0.0	0.13916	-0.12909	
2259.0	0.0	0.11627	-0.1615	
2260.0	0.0	0.09814	-0.18842	
2261.0	0.0	0.07837	-0.22485	
2262.0	0.0	0.06317	-0.25351	
2263.0	0.0	0.04614	-0.28967	
2264.0	0.0	0.03589	-0.31787	
2265.0	0.0	0.02472	-0.35504	
2266.0	0.0	0.01904	-0.38013	
2267.0	0.0	0.01135	-0.4151	
2268.0	0.0	0.00952	-0.44	
2269.0	0.0	0.00549	-0.46271	
2270.0	0.0	0.00787	-0.48102	
2271.0	0.0	0.00732	-0.49741	
2272.0	0.0	0.01263	-0.50317	
2273.0	0.0	0.01538	-0.51434	
2274.0	0.0	0.02234	-0.51105	
2275.0	0.0	0.02637	-0.52771	
2276.0	0.0	0.03534	-0.52203	
2277.0	0.0	0.04138	-0.52982	
2278.0	0.0	0.05182	-0.5343	
2279.0	0.0	0.05804	-0.53806	
2280.0	0.0	0.06885	-0.54932	
2281.0	0.0	0.07617	-0.56259	
2282.0	0.0	0.08771	-0.56708	
2283.0	0.0	0.09393	-0.59656	
2284.0	0.0	0.10071	-0.60901	
2285.0	0.0	0.10126	-0.6286	
2286.0	0.0	0.10254	-0.63336	
2287.0	0.0	0.09869	-0.65936	
2288.0	0.0	0.09796	-0.66742	
2289.0	0.0	0.09338	-0.6958	
2290.0	0.0	0.09668	-0.7131	
2291.0	0.0	0.09869	-0.74268	
2292.0	0.0	0.1062	-0.76987	
2293.0	0.0	0.11133	-0.81583	
2294.0	0.0	0.11957	-0.85474	
2295.0	0.0	0.12268	-0.89154	
2296.0	0.0	0.12817	-0.92482	
2297.0	0.0	0.12744	-0.95984	
2298.0	0.0	0.13	-0.98708	
2299.0	0.0	0.12744	-1.01688	
2300.0	0.0	0.13037	-1.0351	
2301.0	0.0	0.12781	-1.0643	
2302.0	0.0	0.12817	-1.08133	
2303.0	0.0	0.12268	-1.11086	
2304.0	0.0	0.12122	-1.12244	
2305.0	0.0	0.11481	-1.1424	
2306.0	0.0	0.11426	-1.15228	
2307.0	0.0	0.1106	-1.16153	
2308.0	0.0	0.11206	-1.16299	
2309.0	0.0	0.11041	-1.16748	
2310.0	0.0	0.11206	-1.16052	
2311.0	0.0	0.1106	-1.15906	
2312.0	0.0	0.11206	-1.15279	
2313.0	0.0	0.11023	-1.15292	
2314.0	0.0	0.11316	-1.14697	
2315.0	0.0	0.11334	-1.14917	
2316.0	0.0	0.11902	-1.14111	
2317.0	0.0	0.11975	-1.13864	
2318.0	0.0	0.12543	-1.12532	
2319.0	0.0	0.12671	-1.12427	
2320.0	0.0	0.1311	-1.11923	
2321.0	0.0	0.1333	-1.1244	
2322.0	0.0	0.14026	-1.11731	
2323.0	0.0	0.14429	-1.11456	
2324.0	0.0	0.15399	-1.09918	
2325.0	0.0	0.16022	-1.08389	
2326.0	0.0	0.17102	-1.05167	
2327.0	0.0	0.17743	-1.021	
2328.0	0.0	0.1886	-0.97842	
2329.0	0.0	0.1972	-0.93887	
2330.0	0.0	0.20984	-0.89703	
2331.0	0.0	0.21936	-0.86078	
2332.0	0.0	0.23364	-0.81683	
2333.0	0.0	0.2417	-0.78424	
2334.0	0.0	0.25397	-0.75343	
2335.0	0.0	0.26038	-0.73032	
2336.0	0.0	0.2699	-0.70734	
2337.0	0.0	0.27393	-0.68555	
2338.0	0.0	0.28088	-0.66028	
2339.0	0.0	0.28235	-0.63831	
2340.0	0.0	0.28656	-0.61771	
2341.0	0.0	0.28528	-0.5994	
2342.0	0.0	0.28821	-0.57916	
2343.0	0.0	0.28674	-0.5658	
2344.0	0.0	0.29004	-0.54327	
2345.0	0.0	0.28857	-0.53174	
2346.0	0.0	0.29224	-0.50958	
2347.0	0.0	0.29022	-0.50079	
2348.0	0.0	0.29224	-0.47552	
2349.0	0.0	0.29041	-0.47443	
2350.0	0.0	0.29297	-0.4617	
2351.0	0.0	0.2915	-0.45538	
2352.0	0.0	0.29443	-0.45978	
2353.0	0.0	0.29114	-0.46271	
2354.0	0.0	0.29224	-0.45108	
2355.0	0.0	0.28857	-0.45978	
2356.0	0.0	0.28821	-0.44733	
2357.0	0.0	0.28455	-0.45319	
2358.0	0.0	0.28857	-0.44568	
2359.0	0.0	0.29077	-0.45392	
2360.0	0.0	0.30249	-0.46252	
2361.0	0.0	0.31274	-0.492	
2362.0	0.0	0.33032	-0.50262	
2363.0	0.0	0.3457	-0.5191	
2364.0	0.0	0.36694	-0.52405	
2365.0	0.0	0.38489	-0.52835	
2366.0	0.0	0.40741	-0.5213	
2367.0	0.0	0.427	-0.51764	
2368.0	0.0	0.45081	-0.50079	
2369.0	0.0	0.47168	-0.48853	
2370.0	0.0	0.49731	-0.46509	
2371.0	0.0	0.52185	-0.4563	
2372.0	0.0	0.55371	-0.43671	
2373.0	0.0	0.58667	-0.41766	
2374.0	0.0	0.62769	-0.38544	
2375.0	0.0	0.67017	-0.35916	
2376.0	0.0	0.71997	-0.3208	
2377.0	0.0	0.76648	-0.27631	
2378.0	0.0	0.81152	-0.21423	
2379.0	0.0	0.85327	-0.14941	
2380.0	0.0	0.89136	-0.05914	
2381.0	0.0	0.92432	0.02948	
2382.0	0.0	0.95728	0.13531	
2383.0	0.0	0.98364	0.20709	
2384.0	0.0	1.01074	0.28967	
2385.0	0.0	1.03125	0.37115	
2386.0	0.0	1.05322	0.43378	
2387.0	0.0	1.0697	0.47827	
2388.0	0.0	1.08728	0.53938	
2389.0	0.0	1.09863	0.57697	
2390.0	0.0	1.11108	0.63098	
2391.0	0.0	1.11914	0.67108	
2392.0	0.0	1.13049	0.71741	
2393.0	0.0	1.13782	0.75732	
2394.0	0.0	1.14771	0.79688	
2395.0	0.0	1.1521	0.82782	
2396.0	0.0	1.15796	0.86224	
2397.0	0.0	1.15942	0.8855	
2398.0	0.0	1.16235	0.92285	
2399.0	0.0	1.15796	0.94666	
2400.0	0.0	1.15466	0.97559	
2401.0	0.0	1.14349	0.99133	
2402.0	0.0	1.13525	1.0155	
2403.0	0.0	1.12061	1.03308	
2404.0	0.0	1.10706	1.05267	
2405.0	0.0	1.08765	1.06641	
2406.0	0.0	1.0708	1.07922	
2407.0	0.0	1.04956	1.09387	
2408.0	0.0	1.03198	1.10541	
2409.0	0.0	1.01147	1.10815	
2410.0	0.0	0.99628	1.12079	
2411.0	0.0	0.97705	1.11877	
2412.0	0.0	0.96204	1.13489	
2413.0	0.0	0.94373	1.13141	
2414.0	0.0	0.92908	1.14569	
2415.0	0.0	0.91205	1.14734	
2416.0	0.0	0.89886	1.14661	
2417.0	0.0	0.88184	1.14038	
2418.0	0.0	0.86755	1.14331	
2419.0	0.0	0.85052	1.13342	
2420.0	0.0	0.83496	1.11658	
2421.0	0.0	0.81702	1.10962	
2422.0	0.0	0.80127	1.10596	
2423.0	0.0	0.78149	1.09827	
2424.0	0.0	0.76538	1.0838	
2425.0	0.0	0.74414	1.06622	
2426.0	0.0	0.72693	1.06036	
2427.0	0.0	0.70532	1.04041	
2428.0	0.0	0.68958	1.02887	
2429.0	0.0	0.6709	1.00873	
2430.0	0.0	0.65552	0.98859	
2431.0	0.0	0.63757	0.97101	
2432.0	0.0	0.62329	0.94739	
2433.0	0.0	0.60553	0.92734	
2434.0	0.0	0.59253	0.91438	
2435.0	0.0	0.57422	0.89227	
2436.0	0.0	0.55957	0.8736	
2437.0	0.0	0.54309	0.84851	
2438.0	0.0	0.52972	0.84027	
2439.0	0.0	0.51343	0.80347	
2440.0	0.0	0.50171	0.79395	
2441.0	0.0	0.48743	0.76849	
2442.0	0.0	0.47791	0.75146	
2443.0	0.0	0.46692	0.72583	
2444.0	0.0	0.46143	0.711	
2445.0	0.0	0.4552	0.68001	
2446.0	0.0	0.4541	0.67017	
2447.0	0.0	0.44971	0.6438	
2448.0	0.0	0.45007	0.63684	
2449.0	0.0	0.44678	0.61249	
2450.0	0.0	0.44824	0.59985	
2451.0	0.0	0.44733	0.58081	
2452.0	0.0	0.45007	0.56689	
2453.0	0.0	0.44971	0.5451	
2454.0	0.0	0.45337	0.53284	
2455.0	0.0	0.453	0.50775	
2456.0	0.0	0.45667	0.50116	
2457.0	0.0	0.45575	0.47791	
2458.0	0.0	0.45923	0.46161	
2459.0	0.0	0.45776	0.44019	
2460.0	0.0	0.46289	0.42554	
2461.0	0.0	0.46326	0.40649	
2462.0	0.0	0.46582	0.40485	
2463.0	0.0	0.46527	0.3891	
2464.0	0.0	0.46838	0.37793	
2465.0	0.0	0.46912	0.36475	
2466.0	0.0	0.47314	0.35687	
2467.0	0.0	0.47388	0.33307	
2468.0	0.0	0.47754	0.32922	
2469.0	0.0	0.47754	0.31696	
2470.0	0.0	0.48157	0.30304	
2471.0	0.0	0.48083	0.28857	
2472.0	0.0	0.4834	0.29004	
2473.0	0.0	0.48212	0.27631	
2474.0	0.0	0.48358	0.26935	
2475.0	0.0	0.48083	0.25433	
2476.0	0.0	0.48248	0.24921	
2477.0	0.0	0.48047	0.23438	
2478.0	0.0	0.48157	0.23639	
2479.0	0.0	0.4801	0.22449	
2480.0	0.0	0.48212	0.22339	
2481.0	0.0	0.48047	0.21423	
2482.0	0.0	0.4834	0.21213	
2483.0	0.0	0.48175	0.20343	
2484.0	0.0	0.48376	0.2016	
2485.0	0.0	0.48193	0.19299	
2486.0	0.0	0.48303	0.19061	
2487.0	0.0	0.47919	0.18311	
2488.0	0.0	0.47937	0.18036	
2489.0	0.0	0.47571	0.1734	
2490.0	0.0	0.47607	0.17542	
2491.0	0.0	0.47241	0.16846	
2492.0	0.0	0.47351	0.16754	
2493.0	0.0	0.4704	0.1582	
2494.0	0.0	0.47095	0.15765	
2495.0	0.0	0.46729	0.14777	
2496.0	0.0	0.46802	0.14795	
2497.0	0.0	0.46545	0.13879	
2498.0	0.0	0.46619	0.13916	
2499.0	0.0	0.46252	0.13129	
2500.0	0.0	0.46069	0.13477	
2501.0	0.0	0.45483	0.12909	
2502.0	0.0	0.45081	0.12854	
2503.0	0.0	0.44385	0.12177	
2504.0	0.0	0.44092	0.11865	
2505.0	0.0	0.43469	0.10455	
2506.0	0.0	0.43286	0.09778	
2507.0	0.0	0.42627	0.08807	
2508.0	0.0	0.42444	0.08038	
2509.0	0.0	0.41821	0.07123	
2510.0	0.0	0.41565	0.06775	
2511.0	0.0	0.41089	0.05438	
2512.0	0.0	0.40961	0.04944	
2513.0	0.0	0.40375	0.03973	
2514.0	0.0	0.40063	0.03149	
2515.0	0.0	0.39221	0.02307	
2516.0	0.0	0.38599	0.01666	
2517.0	0.0	0.3728	0.00348	
2518.0	0.0	0.35925	-0.00659	
2519.0	0.0	0.33801	-0.03223	
2520.0	0.0	0.31805	-0.04797	
2521.0	0.0	0.29187	-0.08752	
2522.0	0.0	0.2666	-0.11957	
2523.0	0.0	0.23676	-0.15765	
2524.0	0.0	0.20544	-0.19556	
2525.0	0.0	0.16956	-0.24792	
2526.0	0.0	0.13293	-0.28839	
2527.0	0.0	0.09229	-0.3349	
2528.0	0.0	0.05603	-0.37921	
2529.0	0.0	0.01721	-0.42654	
2530.0	0.0	-0.0163	-0.47534	
2531.0	0.0	-0.05255	-0.51727	
2532.0	0.0	-0.0835	-0.54675	
2533.0	0.0	-0.11682	-0.59647	
2534.0	0.0	-0.14502	-0.63062	
2535.0	0.0	-0.17798	-0.66943	
2536.0	0.0	-0.20801	-0.70239	
2537.0	0.0	-0.24133	-0.7348	
2538.0	0.0	-0.27026	-0.7597	
2539.0	0.0	-0.30267	-0.80237	
2540.0	0.0	-0.33179	-0.83533	
2541.0	0.0	-0.36475	-0.87067	
2542.0	0.0	-0.39404	-0.90015	
2543.0	0.0	-0.42719	-0.94382	
2544.0	0.0	-0.4574	-0.96597	
2545.0	0.0	-0.49072	-1.00159	
2546.0	0.0	-0.52148	-1.03345	
2547.0	0.0	-0.55536	-1.05368	
2548.0	0.0	-0.58704	-1.0849	
2549.0	0.0	-0.62128	-1.10889	
2550.0	0.0	-0.65149	-1.1304	
2551.0	0.0	-0.68513	-1.15274	
2552.0	0.0	-0.71375	-1.17091	
2553.0	0.0	-0.74432	-1.18945	
2554.0	0.0	-0.76996	-1.20557	
2555.0	0.0	-0.79633	-1.2225	
2556.0	0.0	-0.81647	-1.23056	
2557.0	0.0	-0.83698	-1.24741	
2558.0	0.0	-0.85062	-1.2632	
2559.0	0.0	-0.86462	-1.27107	
2560.0	0.0	-0.87231	-1.28586	
2561.0	0.0	-0.88179	-1.29785	
2562.0	0.0	-0.88586	-1.29639	
2563.0	0.0	-0.89264	-1.31296	
2564.0	0.0	-0.89502	-1.31561	
2565.0	0.0	-0.90033	-1.32541	
2566.0	0.0	-0.90138	-1.32069	
2567.0	0.0	-0.90692	-1.3298	
2568.0	0.0	-0.90802	-1.33383	
2569.0	0.0	-0.91287	-1.34605	
2570.0	0.0	-0.9137	-1.34752	
2571.0	0.0	-0.91914	-1.35379	
2572.0	0.0	-0.92065	-1.3558	
2573.0	0.0	-0.92606	-1.36743	
2574.0	0.0	-0.92853	-1.371	
2575.0	0.0	-0.93567	-1.37915	
2576.0	0.0	-0.93915	-1.37997	
2577.0	0.0	-0.94574	-1.3894	
2578.0	0.0	-0.94702	-1.38972	
2579.0	0.0	-0.95068	-1.3954	
2580.0	0.0	-0.94995	-1.39462	
2581.0	0.0	-0.9538	-1.39742	
2582.0	0.0	-0.95343	-1.39536	
2583.0	0.0	-0.9565	-1.40854	
2584.0	0.0	-0.95288	-1.40758	
2585.0	0.0	-0.95132	-1.41092	
2586.0	0.0	-0.94313	-1.41554	
2587.0	0.0	-0.93745	-1.42003	
2588.0	0.0	-0.92496	-1.4166	
2589.0	0.0	-0.91553	-1.42332	
2590.0	0.0	-0.90125	-1.41362	
2591.0	0.0	-0.89337	-1.40588	
2592.0	0.0	-0.88106	-1.39751	
2593.0	0.0	-0.87259	-1.38272	
2594.0	0.0	-0.86005	-1.37292	
2595.0	0.0	-0.85011	-1.36588	
2596.0	0.0	-0.83698	-1.3504	
2597.0	0.0	-0.82764	-1.35168	
2598.0	0.0	-0.81537	-1.33557	
2599.0	0.0	-0.80933	-1.33612	
2600.0	0.0	-0.80109	-1.31502	
2601.0	0.0	-0.79843	-1.30334	
2602.0	0.0	-0.7934	-1.29062	
2603.0	0.0	-0.79486	-1.27597	
2604.0	0.0	-0.79395	-1.254	
2605.0	0.0	-0.79861	-1.23871	
2606.0	0.0	-0.7998	-1.21719	
2607.0	0.0	-0.80603	-1.20172	
2608.0	0.0	-0.8085	-1.17421	
2609.0	0.0	-0.81445	-1.16039	
2610.0	0.0	-0.81409	-1.13397	
2611.0	0.0	-0.8172	-1.11356	
2612.0	0.0	-0.8139	-1.08554	
2613.0	0.0	-0.81189	-1.06517	
2614.0	0.0	-0.80301	-1.03931	
2615.0	0.0	-0.79431	-1.0183	
2616.0	0.0	-0.77948	-0.99976	
2617.0	0.0	-0.76758	-0.99225	
2618.0	0.0	-0.75119	-0.96854	
2619.0	0.0	-0.73828	-0.95636	
2620.0	0.0	-0.72125	-0.94043	
2621.0	0.0	-0.70839	-0.92542	
2622.0	0.0	-0.69122	-0.90802	
2623.0	0.0	-0.67804	-0.8952	
2624.0	0.0	-0.66074	-0.87378	
2625.0	0.0	-0.64655	-0.86398	
2626.0	0.0	-0.62915	-0.84531	
2627.0	0.0	-0.61597	-0.83661	
2628.0	0.0	-0.60104	-0.82324	
2629.0	0.0	-0.5918	-0.81519	
2630.0	0.0	-0.58191	-0.80722	
2631.0	0.0	-0.57825	-0.80283	
2632.0	0.0	-0.5733	-0.79102	
2633.0	0.0	-0.5733	-0.78397	
2634.0	0.0	-0.57019	-0.77069	
2635.0	0.0	-0.57129	-0.76355	
2636.0	0.0	-0.56836	-0.75037	
2637.0	0.0	-0.56836	-0.74689	
2638.0	0.0	-0.56488	-0.73764	
2639.0	0.0	-0.56525	-0.73535	
2640.0	0.0	-0.56122	-0.72665	
2641.0	0.0	-0.56177	-0.72391	
2642.0	0.0	-0.55865	-0.71338	
2643.0	0.0	-0.5603	-0.70798	
2644.0	0.0	-0.55847	-0.69452	
2645.0	0.0	-0.56104	-0.68765	
2646.0	0.0	-0.5603	-0.67438	
2647.0	0.0	-0.56433	-0.6676	
2648.0	0.0	-0.56433	-0.6546	
2649.0	0.0	-0.56964	-0.64746	
2650.0	0.0	-0.57202	-0.63409	
2651.0	0.0	-0.5788	-0.62384	
2652.0	0.0	-0.58118	-0.61258	
2653.0	0.0	-0.58759	-0.60342	
2654.0	0.0	-0.58813	-0.58562	
2655.0	0.0	-0.59033	-0.57619	
2656.0	0.0	-0.5885	-0.56342	
2657.0	0.0	-0.59033	-0.55518	
2658.0	0.0	-0.58868	-0.53961	
2659.0	0.0	-0.59125	-0.53027	
2660.0	0.0	-0.58887	-0.52295	
2661.0	0.0	-0.58942	-0.51544	
2662.0	0.0	-0.58392	-0.50574	
2663.0	0.0	-0.58035	-0.49493	
2664.0	0.0	-0.57083	-0.47589	
2665.0	0.0	-0.56506	-0.48065	
2666.0	0.0	-0.55646	-0.46564	
2667.0	0.0	-0.55334	-0.44806	
2668.0	0.0	-0.54694	-0.42572	
2669.0	0.0	-0.54474	-0.41913	
2670.0	0.0	-0.53705	-0.40228	
2671.0	0.0	-0.53238	-0.39075	
2672.0	0.0	-0.52277	-0.38324	
2673.0	0.0	-0.51654	-0.3826	
2674.0	0.0	-0.50702	-0.38251	
2675.0	0.0	-0.50153	-0.37024	
2676.0	0.0	-0.49274	-0.37354	
2677.0	0.0	-0.48853	-0.36475	
2678.0	0.0	-0.48083	-0.349	
2679.0	0.0	-0.47772	-0.34991	
2680.0	0.0	-0.4704	-0.3447	
2681.0	0.0	-0.46747	-0.34131	
2682.0	0.0	-0.46216	-0.33325	
2683.0	0.0	-0.46133	-0.32355	
2684.0	0.0	-0.45667	-0.31805	
2685.0	0.0	-0.45685	-0.30029	
2686.0	0.0	-0.45282	-0.30176	
2687.0	0.0	-0.45374	-0.28912	
2688.0	0.0	-0.45117	-0.28033	
2689.0	0.0	-0.45264	-0.27283	
2690.0	0.0	-0.44971	-0.27594	
2691.0	0.0	-0.44971	-0.26605	
2692.0	0.0	-0.44568	-0.25671	
2693.0	0.0	-0.44476	-0.24646	
2694.0	0.0	-0.44037	-0.24829	
2695.0	0.0	-0.44055	-0.24033	
2696.0	0.0	-0.43671	-0.23145	
2697.0	0.0	-0.43671	-0.22723	
2698.0	0.0	-0.43286	-0.22815	
2699.0	0.0	-0.43323	-0.23492	
2700.0	0.0	-0.42993	-0.21735	
2701.0	0.0	-0.43103	-0.22156	
2702.0	0.0	-0.4281	-0.2157	
2703.0	0.0	-0.42883	-0.22046	
2704.0	0.0	-0.42572	-0.20819	
2705.0	0.0	-0.42627	-0.21716	
2706.0	0.0	-0.42279	-0.20471	
2707.0	0.0	-0.4248	-0.20471	
2708.0	0.0	-0.42224	-0.20508	
2709.0	0.0	-0.42371	-0.20032	
2710.0	0.0	-0.42059	-0.1842	
2711.0	0.0	-0.42114	-0.18604	
2712.0	0.0	-0.41675	-0.18384	
2713.0	0.0	-0.41583	-0.17303	
2714.0	0.0	-0.41034	-0.1723	
2715.0	0.0	-0.40887	-0.16992	
2716.0	0.0	-0.40375	-0.16058	
2717.0	0.0	-0.40338	-0.15143	
2718.0	0.0	-0.39917	-0.14868	
2719.0	0.0	-0.3988	-0.15619	
2720.0	0.0	-0.39386	-0.13641	
2721.0	0.0	-0.39294	-0.14685	
2722.0	0.0	-0.388	-0.13696	
2723.0	0.0	-0.38699	-0.14355	
2724.0	0.0	-0.38196	-0.14465	
2725.0	0.0	-0.38049	-0.13477	
2726.0	0.0	-0.37427	-0.13257	
2727.0	0.0	-0.37097	-0.13394	
2728.0	0.0	-0.36163	-0.13348	
2729.0	0.0	-0.35577	-0.12579	
2730.0	0.0	-0.34607	-0.12273	
2731.0	0.0	-0.34058	-0.12286	
2732.0	0.0	-0.33252	-0.11646	
2733.0	0.0	-0.32849	-0.10162	
2734.0	0.0	-0.32043	-0.10126	
2735.0	0.0	-0.31494	-0.09833	
2736.0	0.0	-0.30432	-0.10107	
2737.0	0.0	-0.2959	-0.10309	
2738.0	0.0	-0.28455	-0.08771	
2739.0	0.0	-0.27667	-0.09348	
2740.0	0.0	-0.26569	-0.07983	
2741.0	0.0	-0.25928	-0.08752	
2742.0	0.0	-0.25049	-0.06793	
2743.0	0.0	-0.24408	-0.05814	
2744.0	0.0	-0.23318	-0.05878	
2745.0	0.0	-0.22559	-0.05676	
2746.0	0.0	-0.21478	-0.04999	
2747.0	0.0	-0.20947	-0.05383	
2748.0	0.0	-0.20068	-0.05566	
2749.0	0.0	-0.19647	-0.05933	
2750.0	0.0	-0.18842	-0.06171	
2751.0	0.0	-0.18439	-0.06491	
2752.0	0.0	-0.17688	-0.06024	
2753.0	0.0	-0.17377	-0.07599	
2754.0	0.0	-0.16718	-0.06519	
2755.0	0.0	-0.16534	-0.07233	
2756.0	0.0	-0.15967	-0.06427	
2757.0	0.0	-0.15948	-0.07581	
2758.0	0.0	-0.15472	-0.0672	
2759.0	0.0	-0.15527	-0.06757	
2760.0	0.0	-0.15179	-0.07178	
2761.0	0.0	-0.15344	-0.06418	
2762.0	0.0	-0.15088	-0.05695	
2763.0	0.0	-0.15125	-0.07434	
2764.0	0.0	-0.1474	-0.07288	
2765.0	0.0	-0.1474	-0.0791	
2766.0	0.0	-0.14355	-0.07874	
2767.0	0.0	-0.14429	-0.07819	
2768.0	0.0	-0.14044	-0.07214	
2769.0	0.0	-0.14099	-0.08057	
2770.0	0.0	-0.13696	-0.08176	
2771.0	0.0	-0.13751	-0.08826	
2772.0	0.0	-0.13477	-0.0769	
2773.0	0.0	-0.13623	-0.08661	
2774.0	0.0	-0.13422	-0.07782	
2775.0	0.0	-0.1366	-0.08807	
2776.0	0.0	-0.13531	-0.08313	
2777.0	0.0	-0.13733	-0.07928	
2778.0	0.0	-0.13495	-0.07123	
2779.0	0.0	-0.13623	-0.07544	
2780.0	0.0	-0.13367	-0.07928	
2781.0	0.0	-0.13477	-0.07617	
2782.0	0.0	-0.13165	-0.06921	
2783.0	0.0	-0.1322	-0.07306	
2784.0	0.0	-0.12946	-0.06683	
2785.0	0.0	-0.13074	-0.06958	
2786.0	0.0	-0.12817	-0.07251	
2787.0	0.0	-0.13	-0.06738	
2788.0	0.0	-0.12781	-0.05731	
2789.0	0.0	-0.12982	-0.06409	
2790.0	0.0	-0.12817	-0.06683	
2791.0	0.0	-0.13074	-0.06628	
2792.0	0.0	-0.12927	-0.05457	
2793.0	0.0	-0.13147	-0.0553	
2794.0	0.0	-0.12982	-0.05511	
2795.0	0.0	-0.13184	-0.06372	
2796.0	0.0	-0.12946	-0.04742	
2797.0	0.0	-0.1311	-0.05713	
2798.0	0.0	-0.12744	-0.05255	
2799.0	0.0	-0.12653	-0.04541	
2800.0	0.0	-0.12012	-0.04962	
2801.0	0.0	-0.1171	-0.04239	
2802.0	0.0	-0.10931	-0.03809	
2803.0	0.0	-0.10547	-0.04541	
2804.0	0.0	-0.09924	-0.04724	
2805.0	0.0	-0.09778	-0.05827	
2806.0	0.0	-0.09082	-0.04907	
2807.0	0.0	-0.08771	-0.065	
2808.0	0.0	-0.08057	-0.06866	
2809.0	0.0	-0.07672	-0.09045	
2810.0	0.0	-0.06848	-0.08624	
2811.0	0.0	-0.06482	-0.09814	
2812.0	0.0	-0.05896	-0.10565	
2813.0	0.0	-0.05896	-0.10437	
2814.0	0.0	-0.0553	-0.11023	
2815.0	0.0	-0.05566	-0.11572	
2816.0	0.0	-0.05164	-0.12689	
2817.0	0.0	-0.05164	-0.14044	
2818.0	0.0	-0.04907	-0.15646	
2819.0	0.0	-0.05035	-0.1756	
2820.0	0.0	-0.04889	-0.18896	
2821.0	0.0	-0.05255	-0.1994	
2822.0	0.0	-0.05182	-0.20563	
2823.0	0.0	-0.05566	-0.20911	
2824.0	0.0	-0.05548	-0.2016	
2825.0	0.0	-0.05933	-0.20453	
2826.0	0.0	-0.05859	-0.1989	
2827.0	0.0	-0.06226	-0.20197	
2828.0	0.0	-0.06116	-0.19409	
2829.0	0.0	-0.06445	-0.1989	
2830.0	0.0	-0.0639	-0.20325	
2831.0	0.0	-0.06702	-0.20352	
2832.0	0.0	-0.06464	-0.20618	
2833.0	0.0	-0.06738	-0.20508	
2834.0	0.0	-0.06519	-0.20068	
2835.0	0.0	-0.06573	-0.20618	
2836.0	0.0	-0.06152	-0.19849	
2837.0	0.0	-0.06079	-0.20837	
2838.0	0.0	-0.05566	-0.20636	
2839.0	0.0	-0.05438	-0.21497	
2840.0	0.0	-0.05035	-0.21423	
2841.0	0.0	-0.05017	-0.22101	
2842.0	0.0	-0.04633	-0.21991	
2843.0	0.0	-0.04724	-0.22485	
2844.0	0.0	-0.04395	-0.22906	
2845.0	0.0	-0.04614	-0.23895	
2846.0	0.0	-0.04486	-0.2417	
2847.0	0.0	-0.04797	-0.2514	
2848.0	0.0	-0.04761	-0.25507	
2849.0	0.0	-0.05127	-0.2655	
2850.0	0.0	-0.05127	-0.26898	
2851.0	0.0	-0.05548	-0.27905	
2852.0	0.0	-0.05548	-0.28162	
2853.0	0.0	-0.05896	-0.29022	
2854.0	0.0	-0.05859	-0.28857	
2855.0	0.0	-0.06061	-0.29572	
2856.0	0.0	-0.05731	-0.28802	
2857.0	0.0	-0.05786	-0.28821	
2858.0	0.0	-0.05328	-0.27869	
2859.0	0.0	-0.05127	-0.27722	
2860.0	0.0	-0.04541	-0.2688	
2861.0	0.0	-0.04266	-0.27136	
2862.0	0.0	-0.03442	-0.2677	
2863.0	0.0	-0.03094	-0.271	
2864.0	0.0	-0.02344	-0.27063	
2865.0	0.0	-0.02032	-0.27484	
2866.0	0.0	-0.01318	-0.26953	
2867.0	0.0	-0.01154	-0.27228	
2868.0	0.0	-0.00623	-0.26697	
2869.0	0.0	-0.00513	-0.26678	
2870.0	0.0	-0.00055	-0.2569	
2871.0	0.0	0.00165	-0.25671	
2872.0	0.0	0.00732	-0.24939	
2873.0	0.0	0.00952	-0.25259	
2874.0	0.0	0.01465	-0.245	
2875.0	0.0	0.01501	-0.24884	
2876.0	0.0	0.01923	-0.25031	
2877.0	0.0	0.01978	-0.258	
2878.0	0.0	0.02655	-0.25909	
2879.0	0.0	0.02966	-0.26862	
2880.0	0.0	0.03845	-0.26678	
2881.0	0.0	0.04395	-0.27301	
2882.0	0.0	0.0531	-0.26807	
2883.0	0.0	0.05933	-0.26697	
2884.0	0.0	0.06995	-0.25415	
2885.0	0.0	0.07983	-0.25085	
2886.0	0.0	0.09778	-0.23666	
2887.0	0.0	0.11719	-0.24078	
2888.0	0.0	0.14575	-0.23639	
2889.0	0.0	0.17505	-0.24481	
2890.0	0.0	0.21222	-0.23621	
2891.0	0.0	0.24792	-0.23364	
2892.0	0.0	0.28839	-0.23401	
2893.0	0.0	0.32739	-0.21991	
2894.0	0.0	0.37061	-0.19446	
2895.0	0.0	0.41235	-0.1571	
2896.0	0.0	0.45795	-0.13403	
2897.0	0.0	0.50116	-0.09467	
2898.0	0.0	0.54877	-0.06866	
2899.0	0.0	0.5918	-0.01877	
2900.0	0.0	0.63794	0.02875	
2901.0	0.0	0.68097	0.07727	
2902.0	0.0	0.72693	0.14264	
2903.0	0.0	0.7674	0.19556	
2904.0	0.0	0.80786	0.27118	
2905.0	0.0	0.84302	0.34204	
2906.0	0.0	0.88037	0.40942	
2907.0	0.0	0.9104	0.47095	
2908.0	0.0	0.94153	0.53027	
2909.0	0.0	0.9668	0.58337	
2910.0	0.0	0.99115	0.63373	
2911.0	0.0	1.00854	0.67969	
2912.0	0.0	1.02539	0.7251	
2913.0	0.0	1.03491	0.76556	
2914.0	0.0	1.0459	0.80438	
2915.0	0.0	1.05103	0.84338	
2916.0	0.0	1.05762	0.88037	
2917.0	0.0	1.06055	0.91187	
2918.0	0.0	1.06531	0.94281	
2919.0	0.0	1.0675	0.9668	
2920.0	0.0	1.07336	0.99261	
2921.0	0.0	1.0752	1.02026	
2922.0	0.0	1.08142	1.0448	
2923.0	0.0	1.08398	1.06824	
2924.0	0.0	1.08984	1.08875	
2925.0	0.0	1.09204	1.10852	
2926.0	0.0	1.09644	1.12903	
2927.0	0.0	1.0979	1.14771	
2928.0	0.0	1.10376	1.16602	
2929.0	0.0	1.10614	1.17847	
2930.0	0.0	1.11346	1.19531	
2931.0	0.0	1.11877	1.20502	
2932.0	0.0	1.12976	1.21838	
2933.0	0.0	1.13782	1.229	
2934.0	0.0	1.15137	1.23303	
2935.0	0.0	1.16309	1.23962	
2936.0	0.0	1.18066	1.25189	
2937.0	0.0	1.19495	1.25409	
2938.0	0.0	1.21289	1.2627	
2939.0	0.0	1.22461	1.26178	
2940.0	0.0	1.23999	1.27148	
2941.0	0.0	1.25098	1.27277	
2942.0	0.0	1.26416	1.27625	
2943.0	0.0	1.27368	1.26764	
2944.0	0.0	1.28687	1.2691	
2945.0	0.0	1.2962	1.25574	
2946.0	0.0	1.30811	1.24585	
2947.0	0.0	1.31726	1.23079	
2948.0	0.0	1.32715	1.22424	
2949.0	0.0	1.33685	1.20886	
2950.0	0.0	1.34619	1.19806	
2951.0	0.0	1.35535	1.17627	
2952.0	0.0	1.36377	1.16895	
2953.0	0.0	1.37183	1.15118	
2954.0	0.0	1.37805	1.14221	
2955.0	0.0	1.38281	1.12532	
2956.0	0.0	1.3894	1.11731	
2957.0	0.0	1.39453	1.09625	
2958.0	0.0	1.40039	1.08673	
2959.0	0.0	1.40552	1.06641	
2960.0	0.0	1.41101	1.05267	
2961.0	0.0	1.41504	1.03052	
2962.0	0.0	1.42163	1.01587	
2963.0	0.0	1.42529	0.99518	
2964.0	0.0	1.42932	0.97998	
2965.0	0.0	1.43372	0.95892	
2966.0	0.0	1.43701	0.94482	
2967.0	0.0	1.44141	0.9223	
2968.0	0.0	1.44397	0.90894	
2969.0	0.0	1.44873	0.88843	
2970.0	0.0	1.45056	0.87378	
2971.0	0.0	1.45312	0.86261	
2972.0	0.0	1.45569	0.84558	
2973.0	0.0	1.45789	0.83221	
2974.0	0.0	1.45972	0.81702	
2975.0	0.0	1.46118	0.7972	
2976.0	0.0	1.46283	0.78552	
2977.0	0.0	1.46448	0.7674	
2978.0	0.0	1.46667	0.75879	
2979.0	0.0	1.46631	0.74213	
2980.0	0.0	1.46741	0.7348	
2981.0	0.0	1.46704	0.71997	
2982.0	0.0	1.46777	0.7121	
2983.0	0.0	1.46411	0.69397	
2984.0	0.0	1.46265	0.67493	
2985.0	0.0	1.45679	0.65771	
2986.0	0.0	1.45422	0.65076	
2987.0	0.0	1.44727	0.63025	
2988.0	0.0	1.44287	0.62137	
2989.0	0.0	1.43298	0.59875	
2990.0	0.0	1.42859	0.59106	
2991.0	0.0	1.4209	0.58704	
2992.0	0.0	1.41724	0.57449	
2993.0	0.0	1.40936	0.55316	
2994.0	0.0	1.40515	0.55554	
2995.0	0.0	1.39526	0.53796	
2996.0	0.0	1.38721	0.52222	
2997.0	0.0	1.37439	0.50867	
2998.0	0.0	1.36707	0.51343	
2999.0	0.0	1.35681	0.49713	
3000.0	0.0	1.35388	0.47278	
3001.0	0.0	1.34839	0.45667	
3002.0	0.0	1.34564	0.44952	
3003.0	0.0	1.3418	0.43451	
3004.0	0.0	1.3418	0.42609	
3005.0	0.0	1.33667	0.42609	
3006.0	0.0	1.33374	0.40924	
3007.0	0.0	1.32568	0.40466	
3008.0	0.0	1.32092	0.37976	
3009.0	0.0	1.3125	0.36676	
3010.0	0.0	1.30591	0.35266	
3011.0	0.0	1.29749	0.34735	
3012.0	0.0	1.29346	0.3197	
3013.0	0.0	1.28558	0.30249	
3014.0	0.0	1.28174	0.29974	
3015.0	0.0	1.27551	0.27777	
3016.0	0.0	1.27441	0.2677	
3017.0	0.0	1.27002	0.25909	
3018.0	0.0	1.27039	0.24536	
3019.0	0.0	1.26489	0.22852	
3020.0	0.0	1.26196	0.21954	
3021.0	0.0	1.25574	0.20691	
3022.0	0.0	1.25281	0.19208	
3023.0	0.0	1.24658	0.17542	
3024.0	0.0	1.24512	0.16095	
3025.0	0.0	1.23926	0.14172	
3026.0	0.0	1.23779	0.12671	
3027.0	0.0	1.2312	0.10858	
3028.0	0.0	1.22827	0.09045	
3029.0	0.0	1.22021	0.06592	
3030.0	0.0	1.21399	0.05072	
3031.0	0.0	1.20227	0.03204	
3032.0	0.0	1.19183	0.02344	
3033.0	0.0	1.17865	0.01025	
3034.0	0.0	1.17114	-0.00659	
3035.0	0.0	1.15942	-0.01868	
3036.0	0.0	1.15137	-0.02783	
3037.0	0.0	1.14056	-0.04175	
3038.0	0.0	1.13416	-0.04285	
3039.0	0.0	1.12317	-0.04761	
3040.0	0.0	1.11584	-0.06445	
3041.0	0.0	1.10449	-0.07343	
3042.0	0.0	1.0968	-0.06793	
3043.0	0.0	1.08582	-0.06921	
3044.0	0.0	1.07849	-0.07928	
3045.0	0.0	1.06677	-0.08514	
3046.0	0.0	1.05981	-0.08752	
3047.0	0.0	1.047	-0.09338	
3048.0	0.0	1.03711	-0.0932	
3049.0	0.0	1.02466	-0.0965	
3050.0	0.0	1.01624	-0.09393	
3051.0	0.0	1.00415	-0.09814	
3052.0	0.0	0.99609	-0.09851	
3053.0	0.0	0.98438	-0.104	
3054.0	0.0	0.97742	-0.0954	
3055.0	0.0	0.9657	-0.09485	
3056.0	0.0	0.95837	-0.08789	
3057.0	0.0	0.94501	-0.10089	
3058.0	0.0	0.93567	-0.09833	
3059.0	0.0	0.92212	-0.10098	
3060.0	0.0	0.9126	-0.09576	
3061.0	0.0	0.90015	-0.09741	
3062.0	0.0	0.89099	-0.09229	
3063.0	0.0	0.87854	-0.09851	
3064.0	0.0	0.87048	-0.09045	
3065.0	0.0	0.8584	-0.09979	
3066.0	0.0	0.85034	-0.09485	
3067.0	0.0	0.83862	-0.09796	
3068.0	0.0	0.82947	-0.09888	
3069.0	0.0	0.81592	-0.10107	
3070.0	0.0	0.80566	-0.09998	
3071.0	0.0	0.79175	-0.1073	
3072.0	0.0	0.78076	-0.09723	
3073.0	0.0	0.76648	-0.09851	
3074.0	0.0	0.75586	-0.10474	
3075.0	0.0	0.74268	-0.11041	
3076.0	0.0	0.73389	-0.10986	
3077.0	0.0	0.7218	-0.10547	
3078.0	0.0	0.71375	-0.11353	
3079.0	0.0	0.70367	-0.117	
3080.0	0.0	0.698	-0.10803	
3081.0	0.0	0.68884	-0.11407	
3082.0	0.0	0.685	-0.10272	
3083.0	0.0	0.67896	-0.11719	
3084.0	0.0	0.67749	-0.11316	
3085.0	0.0	0.67419	-0.11646	
3086.0	0.0	0.67529	-0.10968	
3087.0	0.0	0.67346	-0.12177	
3088.0	0.0	0.67529	-0.11783	
3089.0	0.0	0.67273	-0.12598	
3090.0	0.0	0.67236	-0.13037	
3091.0	0.0	0.66907	-0.1355	
3092.0	0.0	0.66888	-0.13165	
3093.0	0.0	0.66357	-0.13696	
3094.0	0.0	0.66174	-0.13568	
3095.0	0.0	0.65552	-0.14172	
3096.0	0.0	0.65405	-0.13019	
3097.0	0.0	0.64819	-0.14154	
3098.0	0.0	0.64673	-0.14172	
3099.0	0.0	0.6416	-0.14868	
3100.0	0.0	0.63867	-0.1463	
3101.0	0.0	0.63208	-0.15088	
3102.0	0.0	0.62842	-0.14667	
3103.0	0.0	0.62292	-0.15015	
3104.0	0.0	0.61963	-0.14813	
3105.0	0.0	0.61414	-0.13879	
3106.0	0.0	0.6123	-0.1474	
3107.0	0.0	0.60645	-0.14264	
3108.0	0.0	0.60352	-0.13348	
3109.0	0.0	0.59802	-0.13641	
3110.0	0.0	0.59619	-0.12616	
3111.0	0.0	0.5896	-0.13641	
3112.0	0.0	0.5863	-0.12653	
3113.0	0.0	0.58008	-0.12561	
3114.0	0.0	0.57733	-0.10529	
3115.0	0.0	0.57257	-0.11609	
3116.0	0.0	0.57019	-0.11078	
3117.0	0.0	0.56543	-0.10986	
3118.0	0.0	0.56287	-0.10309	
3119.0	0.0	0.55664	-0.09814	
3120.0	0.0	0.55298	-0.09924	
3121.0	0.0	0.54492	-0.08432	
3122.0	0.0	0.53943	-0.07983	
3123.0	0.0	0.52954	-0.07581	
3124.0	0.0	0.52148	-0.06812	
3125.0	0.0	0.50977	-0.06903	
3126.0	0.0	0.50189	-0.05585	
3127.0	0.0	0.49255	-0.06134	
3128.0	0.0	0.48669	-0.0379	
3129.0	0.0	0.47607	-0.03369	
3130.0	0.0	0.46655	-0.02271	
3131.0	0.0	0.45154	-0.02472	
3132.0	0.0	0.43872	-0.01263	
3133.0	0.0	0.42261	-0.01208	
3134.0	0.0	0.40906	0.00879	
3135.0	0.0	0.39551	0.01465	
3136.0	0.0	0.38379	0.02161	
3137.0	0.0	0.37097	0.02802	
3138.0	0.0	0.36182	0.03442	
3139.0	0.0	0.349	0.03186	
3140.0	0.0	0.34003	0.03772	
3141.0	0.0	0.32794	0.03351	
3142.0	0.0	0.31824	0.03662	
3143.0	0.0	0.30688	0.03058	
3144.0	0.0	0.30103	0.02948	
3145.0	0.0	0.2937	0.02289	
3146.0	0.0	0.29333	0.02435	
3147.0	0.0	0.28931	0.01648	
3148.0	0.0	0.28967	0.01611	
3149.0	0.0	0.28674	0.00861	
3150.0	0.0	0.28857	0.00732	
3151.0	0.0	0.28931	-0.00421	
3152.0	0.0	0.29517	-0.00586	
3153.0	0.0	0.29663	-0.0141	
3154.0	0.0	0.30176	-0.01465	
3155.0	0.0	0.30249	-0.02161	
3156.0	0.0	0.30469	-0.0174	
3157.0	0.0	0.29974	-0.02417	
3158.0	0.0	0.29736	-0.02032	
3159.0	0.0	0.29004	-0.02087	
3160.0	0.0	0.28656	-0.01831	
3161.0	0.0	0.27997	-0.02069	
3162.0	0.0	0.27686	-0.01556	
3163.0	0.0	0.27173	-0.01996	
3164.0	0.0	0.27209	-0.01794	
3165.0	0.0	0.26971	-0.02325	
3166.0	0.0	0.271	-0.01904	
3167.0	0.0	0.26917	-0.02435	
3168.0	0.0	0.27081	-0.02161	
3169.0	0.0	0.26953	-0.02802	
3170.0	0.0	0.27173	-0.02856	
3171.0	0.0	0.26917	-0.03497	
3172.0	0.0	0.27026	-0.03552	
3173.0	0.0	0.2677	-0.04175	
3174.0	0.0	0.2688	-0.0407	
3175.0	0.0	0.26697	-0.04852	
3176.0	0.0	0.2688	-0.04706	
3177.0	0.0	0.2666	-0.05292	
3178.0	0.0	0.26917	-0.04999	
3179.0	0.0	0.2677	-0.05841	
3180.0	0.0	0.27191	-0.05511	
3181.0	0.0	0.27246	-0.06262	
3182.0	0.0	0.27795	-0.05621	
3183.0	0.0	0.28052	-0.06006	
3184.0	0.0	0.28564	-0.0542	
3185.0	0.0	0.28656	-0.05109	
3186.0	0.0	0.29095	-0.04175	
3187.0	0.0	0.29022	-0.03973	
3188.0	0.0	0.29169	-0.02765	
3189.0	0.0	0.28894	-0.03003	
3190.0	0.0	0.28931	-0.02051	
3191.0	0.0	0.28455	-0.02014	
3192.0	0.0	0.28198	-0.01263	
3193.0	0.0	0.27356	-0.01245	
3194.0	0.0	0.26697	-0.00842	
3195.0	0.0	0.25488	-0.01575	
3196.0	0.0	0.24353	-0.00842	
3197.0	0.0	0.22668	-0.01556	
3198.0	0.0	0.21167	-0.01044	
3199.0	0.0	0.19061	-0.01703	
3200.0	0.0	0.16992	-0.01483	
3201.0	0.0	0.14557	-0.01849	
3202.0	0.0	0.12195	-0.0152	
3203.0	0.0	0.09265	-0.01776	
3204.0	0.0	0.06299	-0.02312	
3205.0	0.0	0.02673	-0.02435	
3206.0	0.0	-0.01208	-0.02106	
3207.0	0.0	-0.06152	-0.03104	
3208.0	0.0	-0.1192	-0.03809	
3209.0	0.0	-0.19208	-0.03534	
3210.0	0.0	-0.26733	-0.0434	
3211.0	0.0	-0.33911	-0.05832	
3212.0	0.0	-0.40594	-0.06537	
3213.0	0.0	-0.46985	-0.09229	
3214.0	0.0	-0.52917	-0.08624	
3215.0	0.0	-0.58484	-0.1192	
3216.0	0.0	-0.63629	-0.13239	
3217.0	0.0	-0.68555	-0.16022	
3218.0	0.0	-0.73132	-0.18658	
3219.0	0.0	-0.77509	-0.19885	
3220.0	0.0	-0.81555	-0.21478	
3221.0	0.0	-0.85419	-0.26019	
3222.0	0.0	-0.89003	-0.2796	
3223.0	0.0	-0.92468	-0.30359	
3224.0	0.0	-0.95654	-0.32446	
3225.0	0.0	-0.98694	-0.37061	
3226.0	0.0	-1.01385	-0.39349	
3227.0	0.0	-1.04041	-0.439	
3228.0	0.0	-1.06055	-0.4693	
3229.0	0.0	-1.08124	-0.51196	
3230.0	0.0	-1.09772	-0.55582	
3231.0	0.0	-1.11713	-0.5853	
3232.0	0.0	-1.13379	-0.62201	
3233.0	0.0	-1.15421	-0.67273	
3234.0	0.0	-1.17004	-0.72363	
3235.0	0.0	-1.18726	-0.76904	
3236.0	0.0	-1.19897	-0.8009	
3237.0	0.0	-1.21115	-0.8584	
3238.0	0.0	-1.21738	-0.88779	
3239.0	0.0	-1.2253	-0.91846	
3240.0	0.0	-1.22809	-0.9554	
3241.0	0.0	-1.23322	-0.98877	
3242.0	0.0	-1.23386	-1.01669	
3243.0	0.0	-1.23587	-1.04626	
3244.0	0.0	-1.23157	-1.06577	
3245.0	0.0	-1.22919	-1.08801	
3246.0	0.0	-1.22113	-1.10852	
3247.0	0.0	-1.21655	-1.12939	
3248.0	0.0	-1.20703	-1.14386	
3249.0	0.0	-1.20039	-1.1618	
3250.0	0.0	-1.18941	-1.17041	
3251.0	0.0	-1.18245	-1.18094	
3252.0	0.0	-1.17169	-1.17938	
3253.0	0.0	-1.16547	-1.18396	
3254.0	0.0	-1.15466	-1.17746	
3255.0	0.0	-1.14825	-1.17673	
3256.0	0.0	-1.13782	-1.16684	
3257.0	0.0	-1.13113	-1.16254	
3258.0	0.0	-1.12074	-1.15173	
3259.0	0.0	-1.1153	-1.15009	
3260.0	0.0	-1.10577	-1.13828	
3261.0	0.0	-1.1001	-1.13361	
3262.0	0.0	-1.0903	-1.11896	
3263.0	0.0	-1.08467	-1.11145	
3264.0	0.0	-1.07506	-1.09653	
3265.0	0.0	-1.0697	-1.08636	
3266.0	0.0	-1.06036	-1.06897	
3267.0	0.0	-1.05469	-1.05807	
3268.0	0.0	-1.04425	-1.04004	
3269.0	0.0	-1.03688	-1.02896	
3270.0	0.0	-1.02484	-1.00873	
3271.0	0.0	-1.01614	-0.99738	
3272.0	0.0	-1.00369	-0.98048	
3273.0	0.0	-0.99426	-0.97261	
3274.0	0.0	-0.98026	-0.95801	
3275.0	0.0	-0.97023	-0.95297	
3276.0	0.0	-0.9559	-0.93961	
3277.0	0.0	-0.94464	-0.93256	
3278.0	0.0	-0.92834	-0.91869	
3279.0	0.0	-0.91589	-0.90665	
3280.0	0.0	-0.90005	-0.88934	
3281.0	0.0	-0.89062	-0.87076	
3282.0	0.0	-0.87845	-0.84412	
3283.0	0.0	-0.87048	-0.82407	
3284.0	0.0	-0.85968	-0.79422	
3285.0	0.0	-0.85144	-0.77563	
3286.0	0.0	-0.83908	-0.75558	
3287.0	0.0	-0.8313	-0.74556	
3288.0	0.0	-0.8205	-0.72775	
3289.0	0.0	-0.81372	-0.70807	
3290.0	0.0	-0.80383	-0.69672	
3291.0	0.0	-0.79779	-0.69397	
3292.0	0.0	-0.78955	-0.66943	
3293.0	0.0	-0.78552	-0.67438	
3294.0	0.0	-0.77948	-0.65277	
3295.0	0.0	-0.7782	-0.65588	
3296.0	0.0	-0.77399	-0.63739	
3297.0	0.0	-0.77435	-0.63437	
3298.0	0.0	-0.77142	-0.61908	
3299.0	0.0	-0.77211	-0.62164	
3300.0	0.0	-0.76941	-0.6178	
3301.0	0.0	-0.77051	-0.60297	
3302.0	0.0	-0.7674	-0.60553	
3303.0	0.0	-0.76666	-0.59821	
3304.0	0.0	-0.76227	-0.59601	
3305.0	0.0	-0.76089	-0.58777	
3306.0	0.0	-0.75513	-0.59143	
3307.0	0.0	-0.75366	-0.57953	
3308.0	0.0	-0.74817	-0.58502	
3309.0	0.0	-0.74634	-0.58374	
3310.0	0.0	-0.74075	-0.57971	
3311.0	0.0	-0.73883	-0.5799	
3312.0	0.0	-0.73279	-0.57385	
3313.0	0.0	-0.72986	-0.57697	
3314.0	0.0	-0.7229	-0.56351	
3315.0	0.0	-0.71906	-0.57083	
3316.0	0.0	-0.71118	-0.57111	
3317.0	0.0	-0.7066	-0.57074	
3318.0	0.0	-0.69946	-0.57513	
3319.0	0.0	-0.69653	-0.57198	
3320.0	0.0	-0.69141	-0.57678	
3321.0	0.0	-0.69067	-0.57697	
3322.0	0.0	-0.68719	-0.56415	
3323.0	0.0	-0.68848	-0.57239	
3324.0	0.0	-0.68573	-0.5614	
3325.0	0.0	-0.68774	-0.57001	
3326.0	0.0	-0.68591	-0.56982	
3327.0	0.0	-0.68793	-0.57587	
3328.0	0.0	-0.68582	-0.57623	
3329.0	0.0	-0.68701	-0.5874	
3330.0	0.0	-0.68463	-0.58099	
3331.0	0.0	-0.68701	-0.59454	
3332.0	0.0	-0.68573	-0.6048	
3333.0	0.0	-0.68829	-0.60297	
3334.0	0.0	-0.68646	-0.61404	
3335.0	0.0	-0.68756	-0.62897	
3336.0	0.0	-0.68518	-0.64288	
3337.0	0.0	-0.685	-0.65016	
3338.0	0.0	-0.68097	-0.66083	
3339.0	0.0	-0.68115	-0.67896	
3340.0	0.0	-0.67731	-0.69131	
3341.0	0.0	-0.67676	-0.71292	
3342.0	0.0	-0.67181	-0.72601	
3343.0	0.0	-0.67035	-0.7467	
3344.0	0.0	-0.66431	-0.75824	
3345.0	0.0	-0.66174	-0.7749	
3346.0	0.0	-0.65533	-0.78131	
3347.0	0.0	-0.65387	-0.78973	
3348.0	0.0	-0.64929	-0.78827	
3349.0	0.0	-0.64948	-0.79083	
3350.0	0.0	-0.64545	-0.78561	
3351.0	0.0	-0.64435	-0.78882	
3352.0	0.0	-0.63849	-0.78479	
3353.0	0.0	-0.63702	-0.79129	
3354.0	0.0	-0.63135	-0.79042	
3355.0	0.0	-0.62997	-0.79504	
3356.0	0.0	-0.62512	-0.79559	
3357.0	0.0	-0.6243	-0.80232	
3358.0	0.0	-0.61926	-0.7998	
3359.0	0.0	-0.61835	-0.80328	
3360.0	0.0	-0.61267	-0.8009	
3361.0	0.0	-0.61139	-0.8009	
3362.0	0.0	-0.60608	-0.79367	
3363.0	0.0	-0.60443	-0.79083	
3364.0	0.0	-0.59962	-0.78296	
3365.0	0.0	-0.59766	-0.78214	
3366.0	0.0	-0.5918	-0.77417	
3367.0	0.0	-0.58942	-0.7771	
3368.0	0.0	-0.58356	-0.77014	
3369.0	0.0	-0.58136	-0.77133	
3370.0	0.0	-0.57404	-0.76703	
3371.0	0.0	-0.57056	-0.76813	
3372.0	0.0	-0.56323	-0.76685	
3373.0	0.0	-0.55939	-0.77069	
3374.0	0.0	-0.55151	-0.77637	
3375.0	0.0	-0.5484	-0.78552	
3376.0	0.0	-0.54034	-0.78946	
3377.0	0.0	-0.53705	-0.79953	
3378.0	0.0	-0.53064	-0.79468	
3379.0	0.0	-0.52881	-0.8042	
3380.0	0.0	-0.52405	-0.80127	
3381.0	0.0	-0.52368	-0.80035	
3382.0	0.0	-0.52057	-0.80063	
3383.0	0.0	-0.52258	-0.80237	
3384.0	0.0	-0.52075	-0.80292	
3385.0	0.0	-0.52332	-0.8107	
3386.0	0.0	-0.52185	-0.81253	
3387.0	0.0	-0.52386	-0.82027	
3388.0	0.0	-0.52148	-0.8161	
3389.0	0.0	-0.52295	-0.82617	
3390.0	0.0	-0.5202	-0.82416	
3391.0	0.0	-0.5213	-0.82269	
3392.0	0.0	-0.51892	-0.81921	
3393.0	0.0	-0.51965	-0.8226	
3394.0	0.0	-0.51599	-0.8205	
3395.0	0.0	-0.51636	-0.82489	
3396.0	0.0	-0.51251	-0.8226	
3397.0	0.0	-0.5127	-0.83533	
3398.0	0.0	-0.50867	-0.83359	
3399.0	0.0	-0.50812	-0.83762	
3400.0	0.0	-0.50244	-0.83789	
3401.0	0.0	-0.50061	-0.84009	
3402.0	0.0	-0.49347	-0.83908	
3403.0	0.0	-0.48981	-0.83899	
3404.0	0.0	-0.48303	-0.8302	
3405.0	0.0	-0.48157	-0.8269	
3406.0	0.0	-0.47479	-0.81628	
3407.0	0.0	-0.47095	-0.80896	
3408.0	0.0	-0.46234	-0.80049	
3409.0	0.0	-0.4563	-0.79651	
3410.0	0.0	-0.44531	-0.78204	
3411.0	0.0	-0.43781	-0.78131	
3412.0	0.0	-0.42627	-0.76501	
3413.0	0.0	-0.41876	-0.75558	
3414.0	0.0	-0.40704	-0.73773	
3415.0	0.0	-0.3988	-0.72624	
3416.0	0.0	-0.38544	-0.70734	
3417.0	0.0	-0.37445	-0.69209	
3418.0	0.0	-0.35962	-0.67767	
3419.0	0.0	-0.34717	-0.67181	
3420.0	0.0	-0.33197	-0.66046	
3421.0	0.0	-0.32062	-0.65588	
3422.0	0.0	-0.30597	-0.63831	
3423.0	0.0	-0.2937	-0.64105	
3424.0	0.0	-0.27924	-0.62457	
3425.0	0.0	-0.2666	-0.61945	
3426.0	0.0	-0.25049	-0.6048	
3427.0	0.0	-0.23767	-0.59802	
3428.0	0.0	-0.22156	-0.57797	
3429.0	0.0	-0.20801	-0.56616	
3430.0	0.0	-0.19153	-0.55774	
3431.0	0.0	-0.17761	-0.55023	
3432.0	0.0	-0.16132	-0.52881	
3433.0	0.0	-0.14795	-0.51924	
3434.0	0.0	-0.13184	-0.50684	
3435.0	0.0	-0.11792	-0.49658	
3436.0	0.0	-0.09998	-0.47626	
3437.0	0.0	-0.08496	-0.46692	
3438.0	0.0	-0.06647	-0.45355	
3439.0	0.0	-0.05127	-0.44128	
3440.0	0.0	-0.03241	-0.42371	
3441.0	0.0	-0.01776	-0.41995	
3442.0	0.0	-0.00018	-0.40723	
3443.0	0.0	0.01355	-0.39771	
3444.0	0.0	0.03003	-0.38416	
3445.0	0.0	0.04321	-0.37143	
3446.0	0.0	0.05859	-0.35614	
3447.0	0.0	0.07031	-0.34561	
3448.0	0.0	0.08533	-0.32867	
3449.0	0.0	0.09558	-0.31934	
3450.0	0.0	0.10913	-0.29773	
3451.0	0.0	0.11829	-0.29535	
3452.0	0.0	0.13	-0.28033	
3453.0	0.0	0.13696	-0.26898	
3454.0	0.0	0.1474	-0.25781	
3455.0	0.0	0.15417	-0.24884	
3456.0	0.0	0.16425	-0.23785	
3457.0	0.0	0.17175	-0.2265	
3458.0	0.0	0.18274	-0.22467	
3459.0	0.0	0.19043	-0.21863	
3460.0	0.0	0.20142	-0.20984	
3461.0	0.0	0.20837	-0.20361	
3462.0	0.0	0.2179	-0.19409	
3463.0	0.0	0.22339	-0.1897	
3464.0	0.0	0.23254	-0.18475	
3465.0	0.0	0.23877	-0.18365	
3466.0	0.0	0.24939	-0.16827	
3467.0	0.0	0.25708	-0.17157	
3468.0	0.0	0.2677	-0.16095	
3469.0	0.0	0.27338	-0.1582	
3470.0	0.0	0.28162	-0.14172	
3471.0	0.0	0.28711	-0.15051	
3472.0	0.0	0.29626	-0.13577	
3473.0	0.0	0.30286	-0.13445	
3474.0	0.0	0.31421	-0.13092	
3475.0	0.0	0.32263	-0.13074	
3476.0	0.0	0.33508	-0.11206	
3477.0	0.0	0.34277	-0.11774	
3478.0	0.0	0.35266	-0.10291	
3479.0	0.0	0.35742	-0.0976	
3480.0	0.0	0.3653	-0.07947	
3481.0	0.0	0.36914	-0.07361	
3482.0	0.0	0.37756	-0.06482	
3483.0	0.0	0.38159	-0.07306	
3484.0	0.0	0.38855	-0.06958	
3485.0	0.0	0.39148	-0.07434	
3486.0	0.0	0.39789	-0.07741	
3487.0	0.0	0.40027	-0.0835	
3488.0	0.0	0.40613	-0.0824	
3489.0	0.0	0.40723	-0.09155	
3490.0	0.0	0.41162	-0.08862	
3491.0	0.0	0.41235	-0.09027	
3492.0	0.0	0.41547	-0.08789	
3493.0	0.0	0.41528	-0.08258	
3494.0	0.0	0.41766	-0.0921	
3495.0	0.0	0.41748	-0.09137	
3496.0	0.0	0.42133	-0.09247	
3497.0	0.0	0.42206	-0.08496	
3498.0	0.0	0.42627	-0.08917	
3499.0	0.0	0.42847	-0.09265	
3500.0	0.0	0.43542	-0.08368	
3501.0	0.0	0.43872	-0.09229	
3502.0	0.0	0.44641	-0.08789	
3503.0	0.0	0.45044	-0.09467	
3504.0	0.0	0.4585	-0.09906	
3505.0	0.0	0.46362	-0.09137	
3506.0	0.0	0.47314	-0.09943	
3507.0	0.0	0.47882	-0.09045	
3508.0	0.0	0.48816	-0.10034	
3509.0	0.0	0.4953	-0.10547	
3510.0	0.0	0.50464	-0.09869	
3511.0	0.0	0.51251	-0.09155	
3512.0	0.0	0.52313	-0.10126	
3513.0	0.0	0.53174	-0.09631	
3514.0	0.0	0.54419	-0.08881	
3515.0	0.0	0.55298	-0.1073	
3516.0	0.0	0.5647	-0.09631	
3517.0	0.0	0.57275	-0.10181	
3518.0	0.0	0.58374	-0.08752	
3519.0	0.0	0.59033	-0.09485	
3520.0	0.0	0.59985	-0.078	
3521.0	0.0	0.60498	-0.08276	
3522.0	0.0	0.61304	-0.07031	
3523.0	0.0	0.6178	-0.08075	
3524.0	0.0	0.62476	-0.07068	
3525.0	0.0	0.62769	-0.08057	
3526.0	0.0	0.63354	-0.07004	
3527.0	0.0	0.63574	-0.08185	
3528.0	0.0	0.64087	-0.07562	
3529.0	0.0	0.64197	-0.08679	
3530.0	0.0	0.64453	-0.10144	
3531.0	0.0	0.64307	-0.12048	
3532.0	0.0	0.64398	-0.1192	
3533.0	0.0	0.64307	-0.14337	
3534.0	0.0	0.64636	-0.14539	
3535.0	0.0	0.64746	-0.15344	
3536.0	0.0	0.6535	-0.15051	
3537.0	0.0	0.65918	-0.14886	
3538.0	0.0	0.66888	-0.13641	
3539.0	0.0	0.67493	-0.12167	
3540.0	0.0	0.68463	-0.0802	
3541.0	0.0	0.68994	-0.06042	
3542.0	0.0	0.69873	-0.02216	
3543.0	0.0	0.70734	0.01428	
3544.0	0.0	0.72107	0.05566	
3545.0	0.0	0.73389	0.08496	
3546.0	0.0	0.75256	0.12927	
3547.0	0.0	0.76831	0.13916	
3548.0	0.0	0.78992	0.16772	
3549.0	0.0	0.80786	0.17413	
3550.0	0.0	0.82874	0.18256	
3551.0	0.0	0.84668	0.20013	
3552.0	0.0	0.86682	0.20892	
3553.0	0.0	0.8844	0.2347	
3554.0	0.0	0.90472	0.24609	
3555.0	0.0	0.91992	0.24756	
3556.0	0.0	0.9375	0.25946	
3557.0	0.0	0.95068	0.25781	
3558.0	0.0	0.9646	0.27246	
3559.0	0.0	0.97412	0.25452	
3560.0	0.0	0.98511	0.25305	
3561.0	0.0	0.9906	0.24573	
3562.0	0.0	0.99719	0.25598	
3563.0	0.0	0.99866	0.23749	
3564.0	0.0	1.00195	0.23016	
3565.0	0.0	1.00049	0.2309	
3566.0	0.0	1.00232	0.21991	
3567.0	0.0	0.99902	0.20636	
3568.0	0.0	1.00049	0.18695	
3569.0	0.0	0.99829	0.16846	
3570.0	0.0	1.00085	0.16406	
3571.0	0.0	0.99939	0.1452	
3572.0	0.0	1.00085	0.13422	
3573.0	0.0	0.99719	0.12158	
3574.0	0.0	0.99646	0.11426	
3575.0	0.0	0.99023	0.10217	
3576.0	0.0	0.98584	0.09741	
3577.0	0.0	0.97595	0.0813	
3578.0	0.0	0.96826	0.07581	
3579.0	0.0	0.95471	0.05969	
3580.0	0.0	0.94336	0.06555	
3581.0	0.0	0.92578	0.03497	
3582.0	0.0	0.9093	0.02875	
3583.0	0.0	0.88733	0.01483	
3584.0	0.0	0.86792	0.0022	
3585.0	0.0	0.84357	-0.01373	
3586.0	0.0	0.82288	-0.02454	
3587.0	0.0	0.79761	-0.03589	
3588.0	0.0	0.7771	-0.05603	
3589.0	0.0	0.75476	-0.07086	
3590.0	0.0	0.73755	-0.07947	
3591.0	0.0	0.71741	-0.09668	
3592.0	0.0	0.70239	-0.10199	
3593.0	0.0	0.68628	-0.11151	
3594.0	0.0	0.67548	-0.1116	
3595.0	0.0	0.66339	-0.11481	
3596.0	0.0	0.65735	-0.11316	
3597.0	0.0	0.65039	-0.11353	
3598.0	0.0	0.64819	-0.10913	
3599.0	0.0	0.64636	-0.10858	
3600.0	0.0	0.64819	-0.10913	
3601.0	0.0	0.64783	-0.10272	
3602.0	0.0	0.65076	-0.10757	
3603.0	0.0	0.65021	-0.10675	
3604.0	0.0	0.65332	-0.08734	
3605.0	0.0	0.65277	-0.08185	
3606.0	0.0	0.65735	-0.07278	
3607.0	0.0	0.65845	-0.08093	
3608.0	0.0	0.66504	-0.07141	
3609.0	0.0	0.66577	-0.07379	
3610.0	0.0	0.66943	-0.06171	
3611.0	0.0	0.66797	-0.07361	
3612.0	0.0	0.6698	-0.07617	
3613.0	0.0	0.6676	-0.07526	
3614.0	0.0	0.6687	-0.06702	
3615.0	0.0	0.66614	-0.08459	
3616.0	0.0	0.66806	-0.08112	
3617.0	0.0	0.6665	-0.07635	
3618.0	0.0	0.66833	-0.07297	
3619.0	0.0	0.66687	-0.07324	
3620.0	0.0	0.67017	-0.06335	
3621.0	0.0	0.66907	-0.06885	
3622.0	0.0	0.67145	-0.05951	
3623.0	0.0	0.67017	-0.05786	
3624.0	0.0	0.67255	-0.04834	
3625.0	0.0	0.6709	-0.04797	
3626.0	0.0	0.6731	-0.04504	
3627.0	0.0	0.6709	-0.03204	
3628.0	0.0	0.6709	-0.0401	
3629.0	0.0	0.66577	-0.03955	
3630.0	0.0	0.66138	-0.02344	
3631.0	0.0	0.65222	-0.03735	
3632.0	0.0	0.6449	-0.03452	
3633.0	0.0	0.63135	-0.02802	
3634.0	0.0	0.62036	-0.04248	
3635.0	0.0	0.60333	-0.05109	
3636.0	0.0	0.58813	-0.0466	
3637.0	0.0	0.56763	-0.07452	
3638.0	0.0	0.54749	-0.07782	
3639.0	0.0	0.52167	-0.08533	
3640.0	0.0	0.49695	-0.09375	
3641.0	0.0	0.46802	-0.10657	
3642.0	0.0	0.44019	-0.11206	
3643.0	0.0	0.40906	-0.13495	
3644.0	0.0	0.38123	-0.13623	
3645.0	0.0	0.34973	-0.13806	
3646.0	0.0	0.32172	-0.15115	
3647.0	0.0	0.29004	-0.15765	
3648.0	0.0	0.26276	-0.16388	
3649.0	0.0	0.23254	-0.18384	
3650.0	0.0	0.20618	-0.19189	
3651.0	0.0	0.17908	-0.20297	
3652.0	0.0	0.15601	-0.21332	
3653.0	0.0	0.13202	-0.23181	
3654.0	0.0	0.11206	-0.23712	
3655.0	0.0	0.08936	-0.25278	
3656.0	0.0	0.07068	-0.26385	
3657.0	0.0	0.04889	-0.27759	
3658.0	0.0	0.03131	-0.28711	
3659.0	0.0	0.01135	-0.30377	
3660.0	0.0	-0.00439	-0.31824	
3661.0	0.0	-0.02124	-0.33362	
3662.0	0.0	-0.03406	-0.34506	
3663.0	0.0	-0.05035	-0.35815	
3664.0	0.0	-0.06409	-0.35724	
3665.0	0.0	-0.08221	-0.36859	
3666.0	0.0	-0.09796	-0.37061	
3667.0	0.0	-0.11646	-0.38049	
3668.0	0.0	-0.13165	-0.38269	
3669.0	0.0	-0.14868	-0.39679	
3670.0	0.0	-0.16168	-0.40466	
3671.0	0.0	-0.17761	-0.42004	
3672.0	0.0	-0.19043	-0.42957	
3673.0	0.0	-0.20618	-0.4444	
3674.0	0.0	-0.21936	-0.45639	
3675.0	0.0	-0.23474	-0.47131	
3676.0	0.0	-0.24792	-0.48138	
3677.0	0.0	-0.26349	-0.49329	
3678.0	0.0	-0.27759	-0.50024	
3679.0	0.0	-0.29352	-0.51105	
3680.0	0.0	-0.30634	-0.51453	
3681.0	0.0	-0.32117	-0.52322	
3682.0	0.0	-0.3327	-0.52478	
3683.0	0.0	-0.34772	-0.53114	
3684.0	0.0	-0.35907	-0.53119	
3685.0	0.0	-0.37317	-0.53668	
3686.0	0.0	-0.38287	-0.53595	
3687.0	0.0	-0.39551	-0.54236	
3688.0	0.0	-0.40466	-0.54108	
3689.0	0.0	-0.41656	-0.54858	
3690.0	0.0	-0.4259	-0.54858	
3691.0	0.0	-0.43744	-0.55518	
3692.0	0.0	-0.44714	-0.55206	
3693.0	0.0	-0.4585	-0.55481	
3694.0	0.0	-0.46802	-0.55298	
3695.0	0.0	-0.4801	-0.55499	
3696.0	0.0	-0.48944	-0.5484	
3697.0	0.0	-0.50153	-0.5462	
3698.0	0.0	-0.51086	-0.54538	
3699.0	0.0	-0.52295	-0.55005	
3700.0	0.0	-0.53174	-0.54382	
3701.0	0.0	-0.54346	-0.53879	
3702.0	0.0	-0.55261	-0.53833	
3703.0	0.0	-0.56506	-0.53613	
3704.0	0.0	-0.57458	-0.53842	
3705.0	0.0	-0.58685	-0.54126	
3706.0	0.0	-0.59601	-0.54034	
3707.0	0.0	-0.60754	-0.55005	
3708.0	0.0	-0.6167	-0.54712	
3709.0	0.0	-0.62805	-0.55261	
3710.0	0.0	-0.63721	-0.56516	
3711.0	0.0	-0.64792	-0.5657	
3712.0	0.0	-0.65515	-0.57033	
3713.0	0.0	-0.66431	-0.58008	
3714.0	0.0	-0.66943	-0.58017	
3715.0	0.0	-0.67657	-0.60278	
3716.0	0.0	-0.68042	-0.60846	
3717.0	0.0	-0.68793	-0.61102	
3718.0	0.0	-0.69305	-0.62622	
3719.0	0.0	-0.70029	-0.63702	
3720.0	0.0	-0.7045	-0.64032	
3721.0	0.0	-0.71082	-0.65973	
3722.0	0.0	-0.71338	-0.66998	
3723.0	0.0	-0.71924	-0.68188	
3724.0	0.0	-0.72107	-0.68097	
3725.0	0.0	-0.72546	-0.69269	
3726.0	0.0	-0.72693	-0.69196	
3727.0	0.0	-0.73206	-0.70367	
3728.0	0.0	-0.73352	-0.71594	
3729.0	0.0	-0.7381	-0.72546	
3730.0	0.0	-0.7392	-0.72968	
3731.0	0.0	-0.74286	-0.7446	
3732.0	0.0	-0.74286	-0.75696	
3733.0	0.0	-0.7467	-0.77362	
3734.0	0.0	-0.7478	-0.78589	
3735.0	0.0	-0.75201	-0.80347	
3736.0	0.0	-0.75357	-0.81207	
3737.0	0.0	-0.75787	-0.82736	
3738.0	0.0	-0.75897	-0.83386	
3739.0	0.0	-0.76447	-0.84467	
3740.0	0.0	-0.76666	-0.8476	
3741.0	0.0	-0.77252	-0.85602	
3742.0	0.0	-0.7749	-0.85684	
3743.0	0.0	-0.77994	-0.86426	
3744.0	0.0	-0.78186	-0.86627	
3745.0	0.0	-0.78735	-0.87415	
3746.0	0.0	-0.78955	-0.87378	
3747.0	0.0	-0.79504	-0.88037	
3748.0	0.0	-0.79614	-0.87854	
3749.0	0.0	-0.80026	-0.88367	
3750.0	0.0	-0.80118	-0.88239	
3751.0	0.0	-0.80511	-0.88724	
3752.0	0.0	-0.80612	-0.88467	
3753.0	0.0	-0.8107	-0.88943	
3754.0	0.0	-0.81253	-0.8855	
3755.0	0.0	-0.81775	-0.88687	
3756.0	0.0	-0.81995	-0.8812	
3757.0	0.0	-0.82521	-0.87982	
3758.0	0.0	-0.82782	-0.87341	
3759.0	0.0	-0.83331	-0.87241	
3760.0	0.0	-0.83551	-0.86508	
3761.0	0.0	-0.84119	-0.86581	
3762.0	0.0	-0.84338	-0.85895	
3763.0	0.0	-0.84869	-0.85767	
3764.0	0.0	-0.85126	-0.84814	
3765.0	0.0	-0.85638	-0.84668	
3766.0	0.0	-0.85876	-0.83569	
3767.0	0.0	-0.86389	-0.83459	
3768.0	0.0	-0.86536	-0.82242	
3769.0	0.0	-0.86975	-0.82544	
3770.0	0.0	-0.87122	-0.81134	
3771.0	0.0	-0.87524	-0.81683	
3772.0	0.0	-0.87561	-0.80859	
3773.0	0.0	-0.87744	-0.80228	
3774.0	0.0	-0.87534	-0.7901	
3775.0	0.0	-0.87561	-0.78918	
3776.0	0.0	-0.8714	-0.77802	
3777.0	0.0	-0.87158	-0.78035	
3778.0	0.0	-0.86884	-0.75934	
3779.0	0.0	-0.86957	-0.76263	
3780.0	0.0	-0.86646	-0.7467	
3781.0	0.0	-0.86554	-0.74387	
3782.0	0.0	-0.86115	-0.73572	
3783.0	0.0	-0.85895	-0.73224	
3784.0	0.0	-0.853	-0.71777	
3785.0	0.0	-0.84961	-0.71429	
3786.0	0.0	-0.84155	-0.69177	
3787.0	0.0	-0.83698	-0.67209	
3788.0	0.0	-0.82837	-0.65845	
3789.0	0.0	-0.82233	-0.63849	
3790.0	0.0	-0.81152	-0.62292	
3791.0	0.0	-0.80328	-0.61359	
3792.0	0.0	-0.79147	-0.60663	
3793.0	0.0	-0.78296	-0.6015	
3794.0	0.0	-0.77161	-0.58704	
3795.0	0.0	-0.76382	-0.58759	
3796.0	0.0	-0.75311	-0.57861	
3797.0	0.0	-0.74634	-0.58301	
3798.0	0.0	-0.73627	-0.57385	
3799.0	0.0	-0.72986	-0.56213	
3800.0	0.0	-0.72052	-0.54749	
3801.0	0.0	-0.71503	-0.55206	
3802.0	0.0	-0.70624	-0.54227	
3803.0	0.0	-0.70093	-0.52332	
3804.0	0.0	-0.69196	-0.51398	
3805.0	0.0	-0.68719	-0.51874	
3806.0	0.0	-0.67969	-0.51562	
3807.0	0.0	-0.67451	-0.50565	
3808.0	0.0	-0.66559	-0.50464	
3809.0	0.0	-0.6601	-0.49365	
3810.0	0.0	-0.65112	-0.48633	
3811.0	0.0	-0.64526	-0.47644	
3812.0	0.0	-0.63721	-0.48193	
3813.0	0.0	-0.63208	-0.47635	
3814.0	0.0	-0.62476	-0.45282	
3815.0	0.0	-0.62073	-0.45374	
3816.0	0.0	-0.61414	-0.43643	
3817.0	0.0	-0.61084	-0.42902	
3818.0	0.0	-0.60461	-0.42975	
3819.0	0.0	-0.60132	-0.41455	
3820.0	0.0	-0.59473	-0.40686	
3821.0	0.0	-0.5918	-0.4043	
3822.0	0.0	-0.58594	-0.39148	
3823.0	0.0	-0.58264	-0.39423	
3824.0	0.0	-0.57651	-0.38397	
3825.0	0.0	-0.57312	-0.37683	
3826.0	0.0	-0.56653	-0.35962	
3827.0	0.0	-0.56305	-0.34552	
3828.0	0.0	-0.55627	-0.33344	
3829.0	0.0	-0.55316	-0.34241	
3830.0	0.0	-0.54675	-0.32355	
3831.0	0.0	-0.54291	-0.31897	
3832.0	0.0	-0.53577	-0.31128	
3833.0	0.0	-0.52972	-0.29626	
3834.0	0.0	-0.52075	-0.29041	
3835.0	0.0	-0.51361	-0.29251	
3836.0	0.0	-0.50409	-0.28143	
3837.0	0.0	-0.49878	-0.28052	
3838.0	0.0	-0.49036	-0.26999	
3839.0	0.0	-0.48413	-0.26404	
3840.0	0.0	-0.47443	-0.27127	
3841.0	0.0	-0.46747	-0.26624	
3842.0	0.0	-0.45593	-0.25983	
3843.0	0.0	-0.44751	-0.25562	
3844.0	0.0	-0.43561	-0.24683	
3845.0	0.0	-0.4259	-0.23492	
3846.0	0.0	-0.41382	-0.22412	
3847.0	0.0	-0.40448	-0.21716	
3848.0	0.0	-0.39185	-0.1983	
3849.0	0.0	-0.38141	-0.1994	
3850.0	0.0	-0.36786	-0.18933	
3851.0	0.0	-0.35687	-0.1788	
3852.0	0.0	-0.34369	-0.17889	
3853.0	0.0	-0.33307	-0.17834	
3854.0	0.0	-0.3197	-0.16699	
3855.0	0.0	-0.30981	-0.16937	
3856.0	0.0	-0.29736	-0.1626	
3857.0	0.0	-0.28802	-0.15674	
3858.0	0.0	-0.27612	-0.1485	
3859.0	0.0	-0.26678	-0.15198	
3860.0	0.0	-0.25598	-0.13531	
3861.0	0.0	-0.24829	-0.12616	
3862.0	0.0	-0.2384	-0.12488	
3863.0	0.0	-0.23071	-0.11755	
3864.0	0.0	-0.22046	-0.11023	
3865.0	0.0	-0.2135	-0.11719	
3866.0	0.0	-0.20306	-0.0976	
3867.0	0.0	-0.19592	-0.10867	
3868.0	0.0	-0.18512	-0.09503	
3869.0	0.0	-0.17651	-0.09119	
3870.0	0.0	-0.16443	-0.08551	
3871.0	0.0	-0.15619	-0.08789	
3872.0	0.0	-0.1452	-0.08112	
3873.0	0.0	-0.13696	-0.07407	
3874.0	0.0	-0.12653	-0.07672	
3875.0	0.0	-0.11902	-0.07324	
3876.0	0.0	-0.10913	-0.06583	
3877.0	0.0	-0.10254	-0.06134	
3878.0	0.0	-0.09338	-0.04834	
3879.0	0.0	-0.08734	-0.04578	
3880.0	0.0	-0.078	-0.03772	
3881.0	0.0	-0.07141	-0.03589	
3882.0	0.0	-0.06226	-0.03278	
3883.0	0.0	-0.05566	-0.03076	
3884.0	0.0	-0.04614	-0.02142	
3885.0	0.0	-0.03918	-0.01849	
3886.0	0.0	-0.02985	-0.00476	
3887.0	0.0	-0.02307	0.00293	
3888.0	0.0	-0.01428	0.0011	
3889.0	0.0	-0.00806	0.00531	
3890.0	0.0	0.00146	0.02197	
3891.0	0.0	0.00916	0.01318	
3892.0	0.0	0.02179	0.02765	
3893.0	0.0	0.03113	0.02948	
3894.0	0.0	0.04413	0.02417	
3895.0	0.0	0.05347	0.03387	
3896.0	0.0	0.06409	0.03131	
3897.0	0.0	0.07233	0.03387	
3898.0	0.0	0.08423	0.04962	
3899.0	0.0	0.0932	0.03717	
3900.0	0.0	0.10657	0.04999	
3901.0	0.0	0.11755	0.03735	
3902.0	0.0	0.13184	0.04852	
3903.0	0.0	0.14392	0.04688	
3904.0	0.0	0.1582	0.0575	
3905.0	0.0	0.16846	0.06409	
3906.0	0.0	0.18127	0.07562	
3907.0	0.0	0.19153	0.07178	
3908.0	0.0	0.20471	0.07928	
3909.0	0.0	0.2168	0.09027	
3910.0	0.0	0.23071	0.08972	
3911.0	0.0	0.24188	0.09265	
3912.0	0.0	0.25635	0.09247	
3913.0	0.0	0.26624	0.09247	
3914.0	0.0	0.27905	0.09393	
3915.0	0.0	0.28967	0.08313	
3916.0	0.0	0.30249	0.09192	
3917.0	0.0	0.31165	0.08807	
3918.0	0.0	0.32391	0.08716	
3919.0	0.0	0.33289	0.08936	
3920.0	0.0	0.3446	0.09064	
3921.0	0.0	0.35229	0.09082	
3922.0	0.0	0.36292	0.09631	
3923.0	0.0	0.37097	0.09338	
3924.0	0.0	0.38214	0.09668	
3925.0	0.0	0.39038	0.09622	
3926.0	0.0	0.40137	0.10126	
3927.0	0.0	0.41016	0.10034	
3928.0	0.0	0.42334	0.1062	
3929.0	0.0	0.43341	0.10217	
3930.0	0.0	0.44586	0.10547	
3931.0	0.0	0.4552	0.10327	
3932.0	0.0	0.46765	0.10767	
3933.0	0.0	0.47571	0.104	
3934.0	0.0	0.48633	0.11279	
3935.0	0.0	0.49329	0.10785	
3936.0	0.0	0.50244	0.11371	
3937.0	0.0	0.5083	0.11261	
3938.0	0.0	0.51636	0.11865	
3939.0	0.0	0.52167	0.11751	
3940.0	0.0	0.53064	0.1214	
3941.0	0.0	0.53613	0.11902	
3942.0	0.0	0.54492	0.12726	
3943.0	0.0	0.54932	0.12332	
3944.0	0.0	0.55811	0.12946	
3945.0	0.0	0.56323	0.12653	
3946.0	0.0	0.57166	0.13037	
3947.0	0.0	0.57642	0.12923	
3948.0	0.0	0.58484	0.1322	
3949.0	0.0	0.58905	0.13165	
3950.0	0.0	0.59656	0.13367	
3951.0	0.0	0.60168	0.1322	
3952.0	0.0	0.61194	0.14095	
3953.0	0.0	0.61963	0.13348	
3954.0	0.0	0.63062	0.14539	
3955.0	0.0	0.6394	0.1344	
3956.0	0.0	0.64966	0.14191	
3957.0	0.0	0.65698	0.14374	
3958.0	0.0	0.66724	0.15143	
3959.0	0.0	0.67639	0.14392	
3960.0	0.0	0.68866	0.15802	
3961.0	0.0	0.69983	0.15619	
3962.0	0.0	0.71375	0.15582	
3963.0	0.0	0.72565	0.16498	
3964.0	0.0	0.73938	0.17139	
3965.0	0.0	0.7489	0.16791	
3966.0	0.0	0.76099	0.18201	
3967.0	0.0	0.76868	0.19107	
3968.0	0.0	0.78021	0.19299	
3969.0	0.0	0.78845	0.19872	
3970.0	0.0	0.80072	0.21167	
3971.0	0.0	0.80823	0.20215	
3972.0	0.0	0.81848	0.21002	
3973.0	0.0	0.82544	0.2049	
3974.0	0.0	0.83423	0.20435	
3975.0	0.0	0.83972	0.20782	
3976.0	0.0	0.84778	0.20782	
3977.0	0.0	0.85181	0.2179	
3978.0	0.0	0.85931	0.22485	
3979.0	0.0	0.86206	0.22852	
3980.0	0.0	0.86719	0.23511	
3981.0	0.0	0.86829	0.22522	
3982.0	0.0	0.87231	0.23291	
3983.0	0.0	0.8725	0.2298	
3984.0	0.0	0.87598	0.2439	
3985.0	0.0	0.87451	0.24829	
3986.0	0.0	0.87708	0.24188	
3987.0	0.0	0.87671	0.25227	
3988.0	0.0	0.88147	0.25031	
3989.0	0.0	0.88275	0.25525	
3990.0	0.0	0.88623	0.24701	
3991.0	0.0	0.8866	0.25616	
3992.0	0.0	0.88989	0.24921	
3993.0	0.0	0.88898	0.25598	
3994.0	0.0	0.89062	0.24921	
3995.0	0.0	0.88843	0.24921	
3996.0	0.0	0.88879	0.26349	
3997.0	0.0	0.8844	0.25305	
3998.0	0.0	0.8833	0.2569	
3999.0	0.0	0.87781	0.26166	
4000.0	0.0	0.87561	0.25909	
4001.0	0.0	0.87012	0.26697	
4002.0	0.0	0.86829	0.27173	
4003.0	0.0	0.86353	0.27722	
4004.0	0.0	0.86298	0.27448	
4005.0	0.0	0.85876	0.27832	
4006.0	0.0	0.85858	0.28802	
4007.0	0.0	0.85437	0.28152	
4008.0	0.0	0.85327	0.2796	
4009.0	0.0	0.84814	0.28601	
4010.0	0.0	0.84668	0.28857	
4011.0	0.0	0.84119	0.28363	
4012.0	0.0	0.83972	0.28784	
4013.0	0.0	0.83459	0.28528	
4014.0	0.0	0.83295	0.28748	
4015.0	0.0	0.8269	0.28857	
4016.0	0.0	0.82343	0.28931	
4017.0	0.0	0.81738	0.2829	
4018.0	0.0	0.81409	0.28638	
4019.0	0.0	0.81079	0.27997	
4020.0	0.0	0.81189	0.2829	
4021.0	0.0	0.81262	0.28601	
4022.0	0.0	0.81519	0.28674	
4023.0	0.0	0.81372	0.27612	
4024.0	0.0	0.81592	0.27045	
4025.0	0.0	0.81409	0.26862	
4026.0	0.0	0.81592	0.2688	
4027.0	0.0	0.81354	0.27081	
4028.0	0.0	0.8172	0.26825	
4029.0	0.0	0.81885	0.2644	
4030.0	0.0	0.82397	0.25479	
4031.0	0.0	0.82361	0.25433	
4032.0	0.0	0.82581	0.26935	
4033.0	0.0	0.82324	0.26221	
4034.0	0.0	0.82288	0.27594	
4035.0	0.0	0.81921	0.28345	
4036.0	0.0	0.82068	0.29755	
4037.0	0.0	0.81885	0.29755	
4038.0	0.0	0.8205	0.29324	
4039.0	0.0	0.81738	0.29663	
4040.0	0.0	0.81848	0.28656	
4041.0	0.0	0.81628	0.28326	
4042.0	0.0	0.81482	0.27686	
4043.0	0.0	0.81152	0.27704	
4044.0	0.0	0.81189	0.27246	
4045.0	0.0	0.8075	0.26807	
4046.0	0.0	0.80713	0.27539	
4047.0	0.0	0.80383	0.26981	
4048.0	0.0	0.802	0.27924	
4049.0	0.0	0.79761	0.27411	
4050.0	0.0	0.79614	0.27081	
4051.0	0.0	0.79102	0.27603	
4052.0	0.0	0.789	0.26843	
4053.0	0.0	0.78442	0.26889	
4054.0	0.0	0.78406	0.26917	
4055.0	0.0	0.78113	0.26331	
4056.0	0.0	0.78168	0.27264	
4057.0	0.0	0.77783	0.26001	
4058.0	0.0	0.77783	0.2547	
4059.0	0.0	0.77417	0.25525	
4060.0	0.0	0.77307	0.24829	
4061.0	0.0	0.76904	0.24261	
4062.0	0.0	0.76611	0.24445	
4063.0	0.0	0.75952	0.24115	
4064.0	0.0	0.75586	0.23602	
4065.0	0.0	0.74799	0.23804	
4066.0	0.0	0.74341	0.23877	
4067.0	0.0	0.73407	0.22449	
4068.0	0.0	0.72803	0.2243	
4069.0	0.0	0.71997	0.22797	
4070.0	0.0	0.71411	0.22119	
4071.0	0.0	0.70642	0.22119	
4072.0	0.0	0.70056	0.22046	
4073.0	0.0	0.69214	0.20526	
4074.0	0.0	0.68628	0.20984	
4075.0	0.0	0.67786	0.1983	
4076.0	0.0	0.6709	0.20636	
4077.0	0.0	0.66156	0.19739	
4078.0	0.0	0.65497	0.20343	
4079.0	0.0	0.64453	0.19244	
4080.0	0.0	0.63721	0.19244	
4081.0	0.0	0.62695	0.18732	
4082.0	0.0	0.61945	0.18933	
4083.0	0.0	0.60956	0.17834	
4084.0	0.0	0.60242	0.18311	
4085.0	0.0	0.5929	0.16846	
4086.0	0.0	0.58594	0.16534	
4087.0	0.0	0.57605	0.16022	
4088.0	0.0	0.56836	0.15253	
4089.0	0.0	0.55865	0.14868	
4090.0	0.0	0.5528	0.14095	
4091.0	0.0	0.54529	0.13348	
4092.0	0.0	0.54236	0.11957	
4093.0	0.0	0.53833	0.11279	
4094.0	0.0	0.53613	0.10657	
4095.0	0.0	0.52844	0.09283	
4096.0	0.0	0.52295	0.08423	
4097.0	0.0	0.51434	0.06372	
4098.0	0.0	0.50867	0.05603	
4099.0	0.0	0.49969	0.04303	
4100.0	0.0	0.49585	0.01996	
4101.0	0.0	0.48999	0.00513	
4102.0	0.0	0.48633	0.00439	
4103.0	0.0	0.47919	-0.0163	
4104.0	0.0	0.47241	-0.01593	
4105.0	0.0	0.46106	-0.02737	
4106.0	0.0	0.4519	-0.02161	
4107.0	0.0	0.44128	-0.03955	
4108.0	0.0	0.43286	-0.03387	
4109.0	0.0	0.42114	-0.05695	
4110.0	0.0	0.41162	-0.06372	
4111.0	0.0	0.39917	-0.0834	
4112.0	0.0	0.38818	-0.10071	
4113.0	0.0	0.37354	-0.11041	
4114.0	0.0	0.36127	-0.13202	
4115.0	0.0	0.34644	-0.14374	
4116.0	0.0	0.3327	-0.1637	
4117.0	0.0	0.31677	-0.17761	
4118.0	0.0	0.30139	-0.18237	
4119.0	0.0	0.28308	-0.19537	
4120.0	0.0	0.2677	-0.20984	
4121.0	0.0	0.24902	-0.22467	
4122.0	0.0	0.23364	-0.23218	
4123.0	0.0	0.21533	-0.24316	
4124.0	0.0	0.19922	-0.2525	
4125.0	0.0	0.18091	-0.26495	
4126.0	0.0	0.16699	-0.27448	
4127.0	0.0	0.14978	-0.28912	
4128.0	0.0	0.13715	-0.30688	
4129.0	0.0	0.12012	-0.31421	
4130.0	0.0	0.1062	-0.32867	
4131.0	0.0	0.08899	-0.33582	
4132.0	0.0	0.07361	-0.34149	
4133.0	0.0	0.05566	-0.35486	
4134.0	0.0	0.03992	-0.35687	
4135.0	0.0	0.02161	-0.36346	
4136.0	0.0	0.00513	-0.36639	
4137.0	0.0	-0.01373	-0.36713	
4138.0	0.0	-0.0304	-0.36877	
4139.0	0.0	-0.04907	-0.3761	
4140.0	0.0	-0.065	-0.38031	
4141.0	0.0	-0.0835	-0.38626	
4142.0	0.0	-0.09924	-0.38104	
4143.0	0.0	-0.11627	-0.38708	
4144.0	0.0	-0.13184	-0.3837	
4145.0	0.0	-0.14886	-0.3847	
4146.0	0.0	-0.16333	-0.38123	
4147.0	0.0	-0.18127	-0.38177	
4148.0	0.0	-0.19556	-0.37555	
4149.0	0.0	-0.21295	-0.37555	
4150.0	0.0	-0.22723	-0.36932	
4151.0	0.0	-0.24371	-0.37317	
4152.0	0.0	-0.25726	-0.36804	
4153.0	0.0	-0.27246	-0.36548	
4154.0	0.0	-0.28418	-0.35944	
4155.0	0.0	-0.29865	-0.36053	
4156.0	0.0	-0.30981	-0.35413	
4157.0	0.0	-0.32391	-0.36108	
4158.0	0.0	-0.33545	-0.35541	
4159.0	0.0	-0.34863	-0.3512	
4160.0	0.0	-0.35852	-0.33911	
4161.0	0.0	-0.36969	-0.34625	
4162.0	0.0	-0.37683	-0.33197	
4163.0	0.0	-0.3858	-0.34021	
4164.0	0.0	-0.39166	-0.33179	
