# OpenSignals Text File Format. Version 1
# {"00:07:80:4B:29:5A": {"position": 0, "device": "biosignalsplux", "device name": "00:07:80:4B:29:5A", "device connection": "/dev/tty.biosignalsplux-Bluetoot", "sampling rate": 100, "resolution": [16, 16], "firmware version": 776, "comments": "", "keywords": "", "mode": 0, "sync interval": 2, "date": "2022-5-13", "time": "11:46:18.900", "channels": [1, 2], "sensor": ["RESPIRATION", "RESPIRATION"], "label": ["CH1", "CH2"], "column": ["nSeq", "DI", "CH1", "CH2"], "special": [{"SpO2": [80, 40, 5, 4, 3, 3]}, {"SpO2": [80, 40, 5, 4, 3, 3]}, {"SpO2": [80, 40, 5, 4, 3, 3]}, {"SpO2": [80, 40, 5, 4, 3, 3]}, {"SpO2": [80, 40, 5, 4, 3, 3]}, {"SpO2": [80, 40, 5, 4, 3, 3]}, {"SpO2": [80, 40, 5, 4, 3, 3]}, {"SpO2": [80, 40, 5, 4, 3, 3]}], "digital IO": [0, 1], "sleeve color": ["red", ""], "convertedValues": 1}}
# EndOfHeader
0.0	0.0	0.55225	1.39069	
1.0	0.0	0.56433	1.38959	
2.0	0.0	0.57788	1.39453	
3.0	0.0	0.58887	1.39618	
4.0	0.0	0.6015	1.39618	
5.0	0.0	0.6123	1.39307	
6.0	0.0	0.62476	1.39746	
7.0	0.0	0.63647	1.40332	
8.0	0.0	0.65259	1.40533	
9.0	0.0	0.6687	1.40657	
10.0	0.0	0.68573	1.41101	
11.0	0.0	0.6991	1.41229	
12.0	0.0	0.71375	1.41357	
13.0	0.0	0.72546	1.40552	
14.0	0.0	0.73901	1.39178	
15.0	0.0	0.75073	1.3894	
16.0	0.0	0.76392	1.38995	
17.0	0.0	0.77802	1.37769	
18.0	0.0	0.79321	1.38391	
19.0	0.0	0.80804	1.37549	
20.0	0.0	0.82434	1.37476	
21.0	0.0	0.83862	1.37604	
22.0	0.0	0.85327	1.37439	
23.0	0.0	0.86536	1.36267	
24.0	0.0	0.87891	1.36926	
25.0	0.0	0.89099	1.36542	
26.0	0.0	0.90436	1.35315	
27.0	0.0	0.91644	1.34912	
28.0	0.0	0.93018	1.34619	
29.0	0.0	0.9408	1.33502	
30.0	0.0	0.95325	1.32495	
31.0	0.0	0.96387	1.31616	
32.0	0.0	0.97485	1.30389	
33.0	0.0	0.98401	1.30353	
34.0	0.0	0.99316	1.29675	
35.0	0.0	1.00012	1.2821	
36.0	0.0	1.00708	1.27954	
37.0	0.0	1.01147	1.27478	
38.0	0.0	1.01624	1.26892	
39.0	0.0	1.0188	1.2605	
40.0	0.0	1.02246	1.25446	
41.0	0.0	1.02502	1.25043	
42.0	0.0	1.02905	1.24091	
43.0	0.0	1.03088	1.242	
44.0	0.0	1.03418	1.22827	
45.0	0.0	1.03491	1.22864	
46.0	0.0	1.03894	1.22955	
47.0	0.0	1.04224	1.2182	
48.0	0.0	1.0481	1.22113	
49.0	0.0	1.05139	1.21143	
50.0	0.0	1.05652	1.20337	
51.0	0.0	1.05872	1.19348	
52.0	0.0	1.06128	1.20062	
53.0	0.0	1.06238	1.19275	
54.0	0.0	1.06238	1.2019	
55.0	0.0	1.06018	1.19604	
56.0	0.0	1.05945	1.19897	
57.0	0.0	1.05688	1.1955	
58.0	0.0	1.05579	1.19678	
59.0	0.0	1.05267	1.18671	
60.0	0.0	1.05103	1.18433	
61.0	0.0	1.04736	1.18561	
62.0	0.0	1.04443	1.17554	
63.0	0.0	1.04077	1.17352	
64.0	0.0	1.03857	1.17462	
65.0	0.0	1.03528	1.16858	
66.0	0.0	1.03345	1.16034	
67.0	0.0	1.03052	1.15924	
68.0	0.0	1.02905	1.14935	
69.0	0.0	1.02612	1.14423	
70.0	0.0	1.02429	1.14038	
71.0	0.0	1.02136	1.13086	
72.0	0.0	1.01843	1.12299	
73.0	0.0	1.01367	1.11072	
74.0	0.0	1.01074	1.10175	
75.0	0.0	1.00598	1.08435	
76.0	0.0	1.00049	1.07483	
77.0	0.0	0.9939	1.07007	
78.0	0.0	0.98767	1.05835	
79.0	0.0	0.97742	1.0437	
80.0	0.0	0.96826	1.04114	
81.0	0.0	0.95636	1.03143	
82.0	0.0	0.94666	1.02301	
83.0	0.0	0.93494	1.01477	
84.0	0.0	0.92542	1.00635	
85.0	0.0	0.91425	0.99518	
86.0	0.0	0.90564	0.99573	
87.0	0.0	0.89575	0.98328	
88.0	0.0	0.88733	0.97925	
89.0	0.0	0.87781	0.97815	
90.0	0.0	0.87231	0.96936	
91.0	0.0	0.86957	0.9668	
92.0	0.0	0.87067	0.96405	
93.0	0.0	0.87012	0.95068	
94.0	0.0	0.87048	0.95068	
95.0	0.0	0.86884	0.94116	
96.0	0.0	0.86829	0.92542	
97.0	0.0	0.86792	0.92303	
98.0	0.0	0.87012	0.91187	
99.0	0.0	0.87305	0.90491	
100.0	0.0	0.87891	0.90454	
101.0	0.0	0.88477	0.88733	
102.0	0.0	0.89392	0.89209	
103.0	0.0	0.90161	0.88586	
104.0	0.0	0.9104	0.88	
105.0	0.0	0.91553	0.87524	
106.0	0.0	0.92212	0.87158	
107.0	0.0	0.92542	0.86746	
108.0	0.0	0.93164	0.86169	
109.0	0.0	0.9353	0.85034	
110.0	0.0	0.94043	0.83643	
111.0	0.0	0.94373	0.82819	
112.0	0.0	0.94922	0.8172	
113.0	0.0	0.95142	0.80621	
114.0	0.0	0.95508	0.79468	
115.0	0.0	0.95654	0.78149	
116.0	0.0	0.96039	0.77197	
117.0	0.0	0.96167	0.75476	
118.0	0.0	0.9646	0.74231	
119.0	0.0	0.96423	0.72839	
120.0	0.0	0.9646	0.72253	
121.0	0.0	0.96277	0.70605	
122.0	0.0	0.96277	0.70276	
123.0	0.0	0.9624	0.69067	
124.0	0.0	0.96313	0.68188	
125.0	0.0	0.96313	0.67438	
126.0	0.0	0.96387	0.66998	
127.0	0.0	0.96277	0.66193	
128.0	0.0	0.96313	0.65863	
129.0	0.0	0.96204	0.65186	
130.0	0.0	0.96478	0.64636	
131.0	0.0	0.9657	0.64197	
132.0	0.0	0.96973	0.63702	
133.0	0.0	0.97119	0.6275	
134.0	0.0	0.97559	0.62549	
135.0	0.0	0.97632	0.61835	
136.0	0.0	0.97815	0.61523	
137.0	0.0	0.97815	0.60864	
138.0	0.0	0.97742	0.60791	
139.0	0.0	0.97357	0.60406	
140.0	0.0	0.97192	0.60461	
141.0	0.0	0.96716	0.60059	
142.0	0.0	0.96332	0.60114	
143.0	0.0	0.95764	0.59766	
144.0	0.0	0.95398	0.59747	
145.0	0.0	0.94922	0.59729	
146.0	0.0	0.94556	0.59857	
147.0	0.0	0.9408	0.59912	
148.0	0.0	0.9386	0.60095	
149.0	0.0	0.93457	0.59912	
150.0	0.0	0.93237	0.60297	
151.0	0.0	0.92944	0.60168	
152.0	0.0	0.92871	0.60315	
153.0	0.0	0.92651	0.60461	
154.0	0.0	0.92651	0.60535	
155.0	0.0	0.92542	0.60297	
156.0	0.0	0.9245	0.60242	
157.0	0.0	0.92285	0.6048	
158.0	0.0	0.92212	0.60425	
159.0	0.0	0.92029	0.60425	
160.0	0.0	0.92029	0.60718	
161.0	0.0	0.91772	0.61066	
162.0	0.0	0.91644	0.61157	
163.0	0.0	0.91425	0.61487	
164.0	0.0	0.91333	0.61908	
165.0	0.0	0.91077	0.61688	
166.0	0.0	0.90967	0.62421	
167.0	0.0	0.90674	0.62256	
168.0	0.0	0.90491	0.63025	
169.0	0.0	0.90234	0.63464	
170.0	0.0	0.90308	0.63904	
171.0	0.0	0.90161	0.64453	
172.0	0.0	0.90234	0.65067	
173.0	0.0	0.90161	0.65881	
174.0	0.0	0.90088	0.66614	
175.0	0.0	0.8974	0.67145	
176.0	0.0	0.89612	0.67841	
177.0	0.0	0.89355	0.67914	
178.0	0.0	0.89209	0.69173	
179.0	0.0	0.89209	0.69324	
180.0	0.0	0.89648	0.70312	
181.0	0.0	0.89832	0.70349	
182.0	0.0	0.90271	0.70496	
183.0	0.0	0.90308	0.6947	
184.0	0.0	0.90527	0.69434	
185.0	0.0	0.90546	0.68884	
186.0	0.0	0.9093	0.69104	
187.0	0.0	0.9115	0.69525	
188.0	0.0	0.91626	0.70093	
189.0	0.0	0.92212	0.70825	
190.0	0.0	0.93201	0.724	
191.0	0.0	0.93823	0.73462	
192.0	0.0	0.94629	0.74881	
193.0	0.0	0.95288	0.75842	
194.0	0.0	0.95911	0.76904	
195.0	0.0	0.96204	0.776	
196.0	0.0	0.9668	0.789	
197.0	0.0	0.96899	0.80035	
198.0	0.0	0.97156	0.80859	
199.0	0.0	0.97229	0.81445	
200.0	0.0	0.97339	0.82983	
201.0	0.0	0.97302	0.83423	
202.0	0.0	0.97412	0.84631	
203.0	0.0	0.97339	0.84814	
204.0	0.0	0.97302	0.84814	
205.0	0.0	0.96899	0.85272	
206.0	0.0	0.96313	0.84979	
207.0	0.0	0.94995	0.84943	
208.0	0.0	0.93347	0.85291	
209.0	0.0	0.91187	0.8551	
210.0	0.0	0.89136	0.87305	
211.0	0.0	0.86902	0.88715	
212.0	0.0	0.84814	0.90875	
213.0	0.0	0.82654	0.92395	
214.0	0.0	0.80676	0.94501	
215.0	0.0	0.78882	0.96478	
216.0	0.0	0.77417	0.97943	
217.0	0.0	0.76099	0.99554	
218.0	0.0	0.75439	1.0058	
219.0	0.0	0.75	1.00726	
220.0	0.0	0.7511	1.01953	
221.0	0.0	0.75293	1.00983	
222.0	0.0	0.75879	1.0155	
223.0	0.0	0.76483	1.01697	
224.0	0.0	0.77289	1.02338	
225.0	0.0	0.7804	1.01459	
226.0	0.0	0.79102	1.00488	
227.0	0.0	0.79907	0.98859	
228.0	0.0	0.80859	0.97559	
229.0	0.0	0.81519	0.94373	
230.0	0.0	0.82178	0.91919	
231.0	0.0	0.82654	0.8952	
232.0	0.0	0.83057	0.8681	
233.0	0.0	0.83313	0.84027	
234.0	0.0	0.83606	0.81573	
235.0	0.0	0.83789	0.7901	
236.0	0.0	0.84045	0.77051	
237.0	0.0	0.83936	0.75293	
238.0	0.0	0.83826	0.73956	
239.0	0.0	0.83423	0.72748	
240.0	0.0	0.82965	0.71558	
241.0	0.0	0.82251	0.7099	
242.0	0.0	0.81464	0.7132	
243.0	0.0	0.80566	0.70807	
244.0	0.0	0.79614	0.69708	
245.0	0.0	0.78442	0.68582	
246.0	0.0	0.77216	0.67859	
247.0	0.0	0.75677	0.67145	
248.0	0.0	0.74341	0.65808	
249.0	0.0	0.72766	0.65735	
250.0	0.0	0.71301	0.65607	
251.0	0.0	0.69617	0.65369	
252.0	0.0	0.68152	0.6601	
253.0	0.0	0.66467	0.66321	
254.0	0.0	0.65002	0.6698	
255.0	0.0	0.63373	0.67181	
256.0	0.0	0.62	0.68958	
257.0	0.0	0.60498	0.7002	
258.0	0.0	0.59106	0.7088	
259.0	0.0	0.57715	0.71118	
260.0	0.0	0.56598	0.72949	
261.0	0.0	0.55225	0.737	
262.0	0.0	0.53943	0.7467	
263.0	0.0	0.52478	0.74414	
264.0	0.0	0.51196	0.75439	
265.0	0.0	0.49841	0.75952	
266.0	0.0	0.48779	0.76794	
267.0	0.0	0.479	0.75677	
268.0	0.0	0.47534	0.76978	
269.0	0.0	0.47351	0.76501	
270.0	0.0	0.47205	0.75494	
271.0	0.0	0.46875	0.7478	
272.0	0.0	0.46674	0.72839	
273.0	0.0	0.46234	0.71246	
274.0	0.0	0.45996	0.70459	
275.0	0.0	0.4574	0.68243	
276.0	0.0	0.4585	0.68481	
277.0	0.0	0.45959	0.67291	
278.0	0.0	0.46472	0.6731	
279.0	0.0	0.46985	0.66284	
280.0	0.0	0.47845	0.66522	
281.0	0.0	0.48596	0.65533	
282.0	0.0	0.4953	0.65845	
283.0	0.0	0.50171	0.66449	
284.0	0.0	0.5105	0.66248	
285.0	0.0	0.51709	0.66394	
286.0	0.0	0.52441	0.66193	
287.0	0.0	0.52917	0.66064	
288.0	0.0	0.53357	0.64984	
289.0	0.0	0.5343	0.65149	
290.0	0.0	0.5354	0.64893	
291.0	0.0	0.53394	0.64105	
292.0	0.0	0.53247	0.63739	
293.0	0.0	0.52881	0.63336	
294.0	0.0	0.52551	0.64362	
295.0	0.0	0.52075	0.64471	
296.0	0.0	0.51636	0.65369	
297.0	0.0	0.5094	0.64948	
298.0	0.0	0.50317	0.65808	
299.0	0.0	0.49512	0.66211	
300.0	0.0	0.48926	0.66339	
301.0	0.0	0.48047	0.66724	
302.0	0.0	0.47296	0.6731	
303.0	0.0	0.46289	0.67415	
304.0	0.0	0.45648	0.67859	
305.0	0.0	0.45007	0.67474	
306.0	0.0	0.44751	0.67731	
307.0	0.0	0.44238	0.67712	
308.0	0.0	0.43799	0.67877	
309.0	0.0	0.43085	0.66998	
310.0	0.0	0.42334	0.68097	
311.0	0.0	0.4118	0.68188	
312.0	0.0	0.40063	0.6925	
313.0	0.0	0.38599	0.6947	
314.0	0.0	0.3717	0.70496	
315.0	0.0	0.35541	0.71118	
316.0	0.0	0.34076	0.71613	
317.0	0.0	0.32318	0.72015	
318.0	0.0	0.30707	0.73224	
319.0	0.0	0.28821	0.73773	
320.0	0.0	0.271	0.75677	
321.0	0.0	0.25122	0.7619	
322.0	0.0	0.23291	0.77911	
323.0	0.0	0.21277	0.78625	
324.0	0.0	0.19391	0.80383	
325.0	0.0	0.17285	0.81226	
326.0	0.0	0.15417	0.83203	
327.0	0.0	0.1344	0.84283	
328.0	0.0	0.11572	0.86389	
329.0	0.0	0.09668	0.87195	
330.0	0.0	0.07965	0.89282	
331.0	0.0	0.06226	0.90088	
332.0	0.0	0.04779	0.91864	
333.0	0.0	0.03351	0.93549	
334.0	0.0	0.02197	0.95343	
335.0	0.0	0.01025	0.96936	
336.0	0.0	0.00128	0.98621	
337.0	0.0	-0.00842	0.99756	
338.0	0.0	-0.01465	1.0177	
339.0	0.0	-0.02197	1.03152	
340.0	0.0	-0.02673	1.04718	
341.0	0.0	-0.03113	1.05501	
342.0	0.0	-0.03333	1.07739	
343.0	0.0	-0.03625	1.08344	
344.0	0.0	-0.03589	1.10376	
345.0	0.0	-0.03387	1.1076	
346.0	0.0	-0.0271	1.1261	
347.0	0.0	-0.02197	1.13544	
348.0	0.0	-0.01575	1.14349	
349.0	0.0	-0.01208	1.14844	
350.0	0.0	-0.00623	1.15448	
351.0	0.0	-0.00037	1.15045	
352.0	0.0	0.00952	1.15942	
353.0	0.0	0.02014	1.16125	
354.0	0.0	0.03442	1.17041	
355.0	0.0	0.05017	1.17792	
356.0	0.0	0.07104	1.19531	
357.0	0.0	0.09137	1.20081	
358.0	0.0	0.11389	1.2149	
359.0	0.0	0.13513	1.22021	
360.0	0.0	0.15784	1.23596	
361.0	0.0	0.17944	1.24072	
362.0	0.0	0.20251	1.25226	
363.0	0.0	0.22522	1.25684	
364.0	0.0	0.24994	1.26416	
365.0	0.0	0.27338	1.27954	
366.0	0.0	0.2981	1.29675	
367.0	0.0	0.32263	1.3028	
368.0	0.0	0.34918	1.3147	
369.0	0.0	0.37537	1.32074	
370.0	0.0	0.40356	1.33356	
371.0	0.0	0.42993	1.34015	
372.0	0.0	0.45703	1.3548	
373.0	0.0	0.48157	1.35828	
374.0	0.0	0.50684	1.35645	
375.0	0.0	0.52991	1.36066	
376.0	0.0	0.55298	1.35535	
377.0	0.0	0.57275	1.34729	
378.0	0.0	0.5929	1.34308	
379.0	0.0	0.60883	1.32971	
380.0	0.0	0.62439	1.32449	
381.0	0.0	0.63428	1.32019	
382.0	0.0	0.64233	1.32147	
383.0	0.0	0.6427	1.32898	
384.0	0.0	0.63867	1.33887	
385.0	0.0	0.62402	1.35461	
386.0	0.0	0.60242	1.3667	
387.0	0.0	0.57056	1.37366	
388.0	0.0	0.5332	1.38428	
389.0	0.0	0.48926	1.39252	
390.0	0.0	0.4455	1.39929	
391.0	0.0	0.3999	1.40625	
392.0	0.0	0.35614	1.41174	
393.0	0.0	0.30963	1.41449	
394.0	0.0	0.26404	1.41156	
395.0	0.0	0.2157	1.4231	
396.0	0.0	0.16772	1.43001	
397.0	0.0	0.11957	1.43628	
398.0	0.0	0.07397	1.44049	
399.0	0.0	0.0293	1.44397	
400.0	0.0	-0.01172	1.4436	
401.0	0.0	-0.05237	1.43225	
402.0	0.0	-0.08826	1.43298	
403.0	0.0	-0.12323	1.42493	
404.0	0.0	-0.15436	1.42603	
405.0	0.0	-0.1842	1.43445	
406.0	0.0	-0.20975	1.43427	
407.0	0.0	-0.23438	1.43628	
408.0	0.0	-0.25305	1.43481	
409.0	0.0	-0.26917	1.43587	
410.0	0.0	-0.27905	1.43665	
411.0	0.0	-0.28528	1.42145	
412.0	0.0	-0.28564	1.40881	
413.0	0.0	-0.28436	1.3916	
414.0	0.0	-0.27887	1.36597	
415.0	0.0	-0.2731	1.35791	
416.0	0.0	-0.2644	1.34088	
417.0	0.0	-0.25543	1.32147	
418.0	0.0	-0.24225	1.30106	
419.0	0.0	-0.22778	1.27405	
420.0	0.0	-0.21021	1.25299	
421.0	0.0	-0.19281	1.23285	
422.0	0.0	-0.17212	1.21216	
423.0	0.0	-0.15234	1.18634	
424.0	0.0	-0.12964	1.17426	
425.0	0.0	-0.1062	1.15228	
426.0	0.0	-0.078	1.14148	
427.0	0.0	-0.04907	1.12134	
428.0	0.0	-0.01941	1.11035	
429.0	0.0	0.00751	1.08655	
430.0	0.0	0.03333	1.07812	
431.0	0.0	0.05713	1.06421	
432.0	0.0	0.08185	1.047	
433.0	0.0	0.10583	1.03601	
434.0	0.0	0.13055	1.02502	
435.0	0.0	0.15454	1.01395	
436.0	0.0	0.17981	1.0144	
437.0	0.0	0.20398	1.00122	
438.0	0.0	0.22943	1.00452	
439.0	0.0	0.25104	0.99866	
440.0	0.0	0.27319	0.99609	
441.0	0.0	0.2937	0.99573	
442.0	0.0	0.31494	1.00305	
443.0	0.0	0.33398	1.00049	
444.0	0.0	0.35358	0.99719	
445.0	0.0	0.37207	1.0069	
446.0	0.0	0.39001	1.01166	
447.0	0.0	0.40723	0.99976	
448.0	0.0	0.42407	1.00909	
449.0	0.0	0.44037	1.00525	
450.0	0.0	0.4563	0.99902	
451.0	0.0	0.47131	0.99225	
452.0	0.0	0.48505	0.9906	
453.0	0.0	0.49658	0.99207	
454.0	0.0	0.50977	0.98474	
455.0	0.0	0.52002	0.97119	
456.0	0.0	0.53174	0.9754	
457.0	0.0	0.54126	0.96497	
458.0	0.0	0.55188	0.96259	
459.0	0.0	0.56067	0.95544	
460.0	0.0	0.57019	0.93782	
461.0	0.0	0.57935	0.93274	
462.0	0.0	0.58887	0.9278	
463.0	0.0	0.59802	0.91608	
464.0	0.0	0.60718	0.90692	
465.0	0.0	0.61542	0.88916	
466.0	0.0	0.62439	0.8811	
467.0	0.0	0.63171	0.88257	
468.0	0.0	0.64014	0.87598	
469.0	0.0	0.64746	0.86737	
470.0	0.0	0.65515	0.85126	
471.0	0.0	0.66211	0.85364	
472.0	0.0	0.6698	0.84302	
473.0	0.0	0.67419	0.84155	
474.0	0.0	0.68024	0.83203	
475.0	0.0	0.68518	0.82874	
476.0	0.0	0.69012	0.82031	
477.0	0.0	0.69269	0.81702	
478.0	0.0	0.69617	0.81995	
479.0	0.0	0.69763	0.81079	
480.0	0.0	0.70038	0.80823	
481.0	0.0	0.70239	0.80914	
482.0	0.0	0.70532	0.80493	
483.0	0.0	0.70642	0.79614	
484.0	0.0	0.70898	0.80347	
485.0	0.0	0.71063	0.79852	
486.0	0.0	0.71338	0.79541	
487.0	0.0	0.71521	0.79248	
488.0	0.0	0.71851	0.79065	
489.0	0.0	0.71997	0.7793	
490.0	0.0	0.72327	0.77362	
491.0	0.0	0.72491	0.77325	
492.0	0.0	0.72803	0.77271	
493.0	0.0	0.72986	0.76355	
494.0	0.0	0.73315	0.75275	
495.0	0.0	0.73535	0.75348	
496.0	0.0	0.74011	0.74707	
497.0	0.0	0.74231	0.74176	
498.0	0.0	0.74652	0.73737	
499.0	0.0	0.74835	0.73169	
500.0	0.0	0.75183	0.72656	
501.0	0.0	0.7533	0.72034	
502.0	0.0	0.75732	0.71356	
503.0	0.0	0.76025	0.70129	
504.0	0.0	0.76538	0.6991	
505.0	0.0	0.76904	0.69067	
506.0	0.0	0.77234	0.68298	
507.0	0.0	0.77417	0.67255	
508.0	0.0	0.77747	0.66595	
509.0	0.0	0.7804	0.65955	
510.0	0.0	0.78442	0.64984	
511.0	0.0	0.79065	0.64819	
512.0	0.0	0.80054	0.64929	
513.0	0.0	0.80933	0.64233	
514.0	0.0	0.81848	0.63611	
515.0	0.0	0.82361	0.62439	
516.0	0.0	0.82965	0.61633	
517.0	0.0	0.83496	0.60461	
518.0	0.0	0.84265	0.59747	
519.0	0.0	0.84906	0.58704	
520.0	0.0	0.85913	0.5788	
521.0	0.0	0.86792	0.57568	
522.0	0.0	0.87762	0.57294	
523.0	0.0	0.8877	0.57074	
524.0	0.0	0.8974	0.56946	
525.0	0.0	0.90527	0.56561	
526.0	0.0	0.9126	0.56653	
527.0	0.0	0.91882	0.56543	
528.0	0.0	0.92688	0.56891	
529.0	0.0	0.93237	0.56982	
530.0	0.0	0.94116	0.57074	
531.0	0.0	0.94775	0.56946	
532.0	0.0	0.95728	0.56818	
533.0	0.0	0.96533	0.56085	
534.0	0.0	0.97559	0.55664	
535.0	0.0	0.98328	0.54437	
536.0	0.0	0.99353	0.53687	
537.0	0.0	1.00177	0.5246	
538.0	0.0	1.01147	0.51672	
539.0	0.0	1.01953	0.50281	
540.0	0.0	1.02979	0.48999	
541.0	0.0	1.03821	0.4704	
542.0	0.0	1.04626	0.45703	
543.0	0.0	1.05359	0.45062	
544.0	0.0	1.06238	0.4411	
545.0	0.0	1.06934	0.42664	
546.0	0.0	1.07739	0.4064	
547.0	0.0	1.08398	0.3913	
548.0	0.0	1.09314	0.3847	
549.0	0.0	1.099	0.35468	
550.0	0.0	1.10596	0.35632	
551.0	0.0	1.11035	0.32922	
552.0	0.0	1.11731	0.31348	
553.0	0.0	1.1217	0.29846	
554.0	0.0	1.12903	0.29205	
555.0	0.0	1.13452	0.27063	
556.0	0.0	1.14111	0.26221	
557.0	0.0	1.14624	0.25067	
558.0	0.0	1.1521	0.25085	
559.0	0.0	1.1554	0.2406	
560.0	0.0	1.16016	0.23145	
561.0	0.0	1.16162	0.22632	
562.0	0.0	1.16309	0.23804	
563.0	0.0	1.16162	0.21826	
564.0	0.0	1.16235	0.21991	
565.0	0.0	1.15942	0.21991	
566.0	0.0	1.15814	0.20966	
567.0	0.0	1.15466	0.19849	
568.0	0.0	1.15137	0.19281	
569.0	0.0	1.14697	0.18782	
570.0	0.0	1.14258	0.18942	
571.0	0.0	1.13672	0.18091	
572.0	0.0	1.13086	0.18018	
573.0	0.0	1.12427	0.17505	
574.0	0.0	1.11768	0.18164	
575.0	0.0	1.10889	0.17963	
576.0	0.0	1.10083	0.1723	
577.0	0.0	1.09058	0.17157	
578.0	0.0	1.08124	0.16718	
579.0	0.0	1.0697	0.17706	
580.0	0.0	1.06073	0.16901	
581.0	0.0	1.04956	0.17413	
582.0	0.0	1.04041	0.17065	
583.0	0.0	1.03052	0.17194	
584.0	0.0	1.02209	0.16351	
585.0	0.0	1.01221	0.15454	
586.0	0.0	1.00488	0.15417	
587.0	0.0	0.995	0.16425	
588.0	0.0	0.98694	0.14868	
589.0	0.0	0.97705	0.15216	
590.0	0.0	0.9679	0.14447	
591.0	0.0	0.95618	0.15051	
592.0	0.0	0.94647	0.14172	
593.0	0.0	0.93402	0.13586	
594.0	0.0	0.92358	0.14172	
595.0	0.0	0.9126	0.12634	
596.0	0.0	0.90363	0.12341	
597.0	0.0	0.89209	0.11371	
598.0	0.0	0.88257	0.12085	
599.0	0.0	0.87158	0.11462	
600.0	0.0	0.86188	0.10931	
601.0	0.0	0.85107	0.09686	
602.0	0.0	0.84338	0.08716	
603.0	0.0	0.83789	0.07471	
604.0	0.0	0.83752	0.07947	
605.0	0.0	0.83679	0.05786	
606.0	0.0	0.83569	0.04871	
607.0	0.0	0.8313	0.04559	
608.0	0.0	0.82654	0.02069	
609.0	0.0	0.82141	0.01556	
610.0	0.0	0.81628	-0.00128	
611.0	0.0	0.81226	-0.01538	
612.0	0.0	0.81006	-0.02563	
613.0	0.0	0.80786	-0.02966	
614.0	0.0	0.80969	-0.04358	
615.0	0.0	0.80933	-0.05383	
616.0	0.0	0.81152	-0.05658	
617.0	0.0	0.81116	-0.05548	
618.0	0.0	0.81042	-0.06299	
619.0	0.0	0.80988	-0.06281	
620.0	0.0	0.81024	-0.06573	
621.0	0.0	0.80933	-0.06683	
622.0	0.0	0.81042	-0.05804	
623.0	0.0	0.80896	-0.07471	
624.0	0.0	0.80933	-0.07562	
625.0	0.0	0.8075	-0.07654	
626.0	0.0	0.80786	-0.08936	
627.0	0.0	0.8064	-0.10144	
628.0	0.0	0.80603	-0.10693	
629.0	0.0	0.80383	-0.11353	
630.0	0.0	0.802	-0.11902	
631.0	0.0	0.79907	-0.11687	
632.0	0.0	0.79614	-0.13275	
633.0	0.0	0.78973	-0.1333	
634.0	0.0	0.78516	-0.14813	
635.0	0.0	0.77783	-0.15308	
636.0	0.0	0.77234	-0.15033	
637.0	0.0	0.76483	-0.16113	
638.0	0.0	0.75916	-0.17249	
639.0	0.0	0.75183	-0.17047	
640.0	0.0	0.74487	-0.18732	
641.0	0.0	0.73718	-0.19519	
642.0	0.0	0.73169	-0.19775	
643.0	0.0	0.72363	-0.20691	
644.0	0.0	0.71997	-0.20709	
645.0	0.0	0.71411	-0.21075	
646.0	0.0	0.71118	-0.20215	
647.0	0.0	0.70551	-0.2135	
648.0	0.0	0.70166	-0.2124	
649.0	0.0	0.6958	-0.20966	
650.0	0.0	0.69067	-0.20471	
651.0	0.0	0.6828	-0.19427	
652.0	0.0	0.67603	-0.20068	
653.0	0.0	0.6676	-0.19153	
654.0	0.0	0.66028	-0.18878	
655.0	0.0	0.65112	-0.20023	
656.0	0.0	0.64325	-0.19189	
657.0	0.0	0.63354	-0.18896	
658.0	0.0	0.62549	-0.18237	
659.0	0.0	0.61542	-0.19244	
660.0	0.0	0.60828	-0.1842	
661.0	0.0	0.59912	-0.17651	
662.0	0.0	0.59216	-0.17239	
663.0	0.0	0.58392	-0.17322	
664.0	0.0	0.57715	-0.16718	
665.0	0.0	0.56982	-0.15253	
666.0	0.0	0.56396	-0.16113	
667.0	0.0	0.55737	-0.15491	
668.0	0.0	0.55115	-0.14502	
669.0	0.0	0.54419	-0.14319	
670.0	0.0	0.53943	-0.13458	
671.0	0.0	0.53247	-0.14227	
672.0	0.0	0.52808	-0.1377	
673.0	0.0	0.52185	-0.13531	
674.0	0.0	0.51782	-0.13019	
675.0	0.0	0.51196	-0.12268	
676.0	0.0	0.50793	-0.12048	
677.0	0.0	0.50262	-0.11792	
678.0	0.0	0.50024	-0.10547	
679.0	0.0	0.49457	-0.09778	
680.0	0.0	0.49072	-0.0899	
681.0	0.0	0.48596	-0.09631	
682.0	0.0	0.48193	-0.09357	
683.0	0.0	0.47754	-0.0791	
684.0	0.0	0.47626	-0.08679	
685.0	0.0	0.47168	-0.07993	
686.0	0.0	0.46893	-0.0802	
687.0	0.0	0.46381	-0.0726	
688.0	0.0	0.46033	-0.05951	
689.0	0.0	0.45374	-0.05475	
690.0	0.0	0.44897	-0.04559	
691.0	0.0	0.44238	-0.03598	
692.0	0.0	0.43762	-0.0238	
693.0	0.0	0.43433	-0.01593	
694.0	0.0	0.43341	-0.01007	
695.0	0.0	0.43213	-0.00275	
696.0	0.0	0.43121	0.01447	
697.0	0.0	0.42737	0.01611	
698.0	0.0	0.42371	0.02509	
699.0	0.0	0.41711	0.03662	
700.0	0.0	0.41547	0.05173	
701.0	0.0	0.41235	0.06464	
702.0	0.0	0.41309	0.08093	
703.0	0.0	0.41492	0.0976	
704.0	0.0	0.42151	0.11499	
705.0	0.0	0.42773	0.13367	
706.0	0.0	0.43652	0.15253	
707.0	0.0	0.44421	0.16956	
708.0	0.0	0.45337	0.18951	
709.0	0.0	0.46124	0.21204	
710.0	0.0	0.47076	0.23602	
711.0	0.0	0.479	0.25928	
712.0	0.0	0.48926	0.28345	
713.0	0.0	0.49786	0.29791	
714.0	0.0	0.5072	0.32245	
715.0	0.0	0.51489	0.34039	
716.0	0.0	0.52313	0.36127	
717.0	0.0	0.53064	0.37976	
718.0	0.0	0.5387	0.39056	
719.0	0.0	0.54456	0.41327	
720.0	0.0	0.55225	0.4281	
721.0	0.0	0.55664	0.44092	
722.0	0.0	0.56287	0.46472	
723.0	0.0	0.56616	0.47479	
724.0	0.0	0.57092	0.48999	
725.0	0.0	0.57312	0.50812	
726.0	0.0	0.57715	0.52991	
727.0	0.0	0.57788	0.54419	
728.0	0.0	0.57861	0.56195	
729.0	0.0	0.57806	0.57367	
730.0	0.0	0.58026	0.5885	
731.0	0.0	0.58411	0.60535	
732.0	0.0	0.5907	0.61926	
733.0	0.0	0.59766	0.6308	
734.0	0.0	0.60516	0.64362	
735.0	0.0	0.61249	0.65332	
736.0	0.0	0.62036	0.66907	
737.0	0.0	0.62659	0.68481	
738.0	0.0	0.63428	0.69891	
739.0	0.0	0.64032	0.71118	
740.0	0.0	0.64966	0.7229	
741.0	0.0	0.65735	0.73755	
742.0	0.0	0.66614	0.74817	
743.0	0.0	0.67419	0.7619	
744.0	0.0	0.68298	0.77527	
745.0	0.0	0.68994	0.7868	
746.0	0.0	0.6991	0.79578	
747.0	0.0	0.70459	0.80566	
748.0	0.0	0.71301	0.81757	
749.0	0.0	0.7196	0.82434	
750.0	0.0	0.72803	0.83899	
751.0	0.0	0.73572	0.84467	
752.0	0.0	0.74341	0.85474	
753.0	0.0	0.7511	0.86389	
754.0	0.0	0.76025	0.86902	
755.0	0.0	0.76758	0.87561	
756.0	0.0	0.77637	0.88715	
757.0	0.0	0.78296	0.89465	
758.0	0.0	0.79102	0.90601	
759.0	0.0	0.79651	0.90692	
760.0	0.0	0.80383	0.91937	
761.0	0.0	0.80933	0.93201	
762.0	0.0	0.81592	0.93567	
763.0	0.0	0.82104	0.94427	
764.0	0.0	0.82837	0.95435	
765.0	0.0	0.83221	0.95947	
766.0	0.0	0.83734	0.95508	
767.0	0.0	0.84027	0.96442	
768.0	0.0	0.84558	0.97229	
769.0	0.0	0.84924	0.97485	
770.0	0.0	0.854	0.97375	
771.0	0.0	0.85858	0.96899	
772.0	0.0	0.86316	0.97229	
773.0	0.0	0.86682	0.96863	
774.0	0.0	0.87122	0.9624	
775.0	0.0	0.87305	0.95929	
776.0	0.0	0.87817	0.96808	
777.0	0.0	0.88055	0.97229	
778.0	0.0	0.88843	0.9679	
779.0	0.0	0.89557	0.97211	
780.0	0.0	0.90564	0.97961	
781.0	0.0	0.91223	0.97083	
782.0	0.0	0.91919	0.96735	
783.0	0.0	0.92358	0.9624	
784.0	0.0	0.92871	0.96057	
785.0	0.0	0.93311	0.95673	
786.0	0.0	0.94006	0.95691	
787.0	0.0	0.94702	0.95013	
788.0	0.0	0.95654	0.95306	
789.0	0.0	0.96533	0.95325	
790.0	0.0	0.97705	0.95178	
791.0	0.0	0.98584	0.95178	
792.0	0.0	0.99683	0.96533	
793.0	0.0	1.00452	0.96126	
794.0	0.0	1.01257	0.97797	
795.0	0.0	1.021	0.97888	
796.0	0.0	1.0296	0.99207	
797.0	0.0	1.03711	0.99719	
798.0	0.0	1.0459	0.99957	
799.0	0.0	1.05212	1.00122	
800.0	0.0	1.05981	1.00452	
801.0	0.0	1.06567	1.00305	
802.0	0.0	1.07172	1.00415	
803.0	0.0	1.0752	1.00378	
804.0	0.0	1.08014	1.00562	
805.0	0.0	1.08252	0.99939	
806.0	0.0	1.08636	0.99902	
807.0	0.0	1.08728	0.99188	
808.0	0.0	1.08801	0.99426	
809.0	0.0	1.08545	0.98969	
810.0	0.0	1.08362	0.98364	
811.0	0.0	1.08105	0.98053	
812.0	0.0	1.07922	0.97778	
813.0	0.0	1.07446	0.96863	
814.0	0.0	1.07227	0.96075	
815.0	0.0	1.06787	0.95471	
816.0	0.0	1.06604	0.95325	
817.0	0.0	1.06348	0.94739	
818.0	0.0	1.06421	0.93951	
819.0	0.0	1.06348	0.92889	
820.0	0.0	1.06567	0.92285	
821.0	0.0	1.0675	0.91278	
822.0	0.0	1.06879	0.90857	
823.0	0.0	1.06897	0.89832	
824.0	0.0	1.06897	0.90088	
825.0	0.0	1.06677	0.89758	
826.0	0.0	1.06677	0.8952	
827.0	0.0	1.06256	0.89392	
828.0	0.0	1.06128	0.89154	
829.0	0.0	1.05688	0.88843	
830.0	0.0	1.05267	0.8855	
831.0	0.0	1.04736	0.88495	
832.0	0.0	1.04297	0.8909	
833.0	0.0	1.03711	0.88422	
834.0	0.0	1.03198	0.8866	
835.0	0.0	1.02631	0.8855	
836.0	0.0	1.02246	0.88989	
837.0	0.0	1.01624	0.88916	
838.0	0.0	1.01331	0.88696	
839.0	0.0	1.00708	0.8877	
840.0	0.0	1.00195	0.8833	
841.0	0.0	0.99609	0.88147	
842.0	0.0	0.99097	0.87616	
843.0	0.0	0.98364	0.87744	
844.0	0.0	0.97888	0.87048	
845.0	0.0	0.97156	0.87433	
846.0	0.0	0.96643	0.87048	
847.0	0.0	0.96039	0.867	
848.0	0.0	0.95508	0.86902	
849.0	0.0	0.94885	0.86243	
850.0	0.0	0.94409	0.86334	
851.0	0.0	0.9375	0.86078	
852.0	0.0	0.93274	0.85822	
853.0	0.0	0.92706	0.85583	
854.0	0.0	0.92029	0.85217	
855.0	0.0	0.91333	0.84888	
856.0	0.0	0.9082	0.84741	
857.0	0.0	0.90088	0.84467	
858.0	0.0	0.89465	0.84192	
859.0	0.0	0.88806	0.83826	
860.0	0.0	0.8833	0.83606	
861.0	0.0	0.87598	0.83478	
862.0	0.0	0.87085	0.8313	
863.0	0.0	0.86298	0.83057	
864.0	0.0	0.85803	0.82892	
865.0	0.0	0.85071	0.82397	
866.0	0.0	0.84668	0.82983	
867.0	0.0	0.84521	0.82947	
868.0	0.0	0.84595	0.83093	
869.0	0.0	0.84485	0.83093	
870.0	0.0	0.8432	0.82471	
871.0	0.0	0.83972	0.81262	
872.0	0.0	0.83606	0.81116	
873.0	0.0	0.83203	0.80823	
874.0	0.0	0.83167	0.80347	
875.0	0.0	0.8302	0.789	
876.0	0.0	0.83386	0.78442	
877.0	0.0	0.83606	0.78516	
878.0	0.0	0.84155	0.78076	
879.0	0.0	0.84595	0.776	
880.0	0.0	0.84924	0.77655	
881.0	0.0	0.85107	0.77051	
882.0	0.0	0.85291	0.77014	
883.0	0.0	0.85364	0.77014	
884.0	0.0	0.85693	0.77307	
885.0	0.0	0.85803	0.77344	
886.0	0.0	0.86316	0.77197	
887.0	0.0	0.86682	0.76959	
888.0	0.0	0.87122	0.76941	
889.0	0.0	0.87488	0.76025	
890.0	0.0	0.87909	0.76135	
891.0	0.0	0.88184	0.75494	
892.0	0.0	0.88513	0.75293	
893.0	0.0	0.8877	0.74744	
894.0	0.0	0.88953	0.74561	
895.0	0.0	0.89062	0.73901	
896.0	0.0	0.89282	0.73535	
897.0	0.0	0.89008	0.73059	
898.0	0.0	0.89062	0.72144	
899.0	0.0	0.88843	0.72125	
900.0	0.0	0.8877	0.71796	
901.0	0.0	0.88367	0.70605	
902.0	0.0	0.8822	0.70258	
903.0	0.0	0.87854	0.70258	
904.0	0.0	0.87671	0.69745	
905.0	0.0	0.87451	0.69049	
906.0	0.0	0.87469	0.68335	
907.0	0.0	0.87598	0.67529	
908.0	0.0	0.87927	0.66632	
909.0	0.0	0.8822	0.65314	
910.0	0.0	0.88696	0.64966	
911.0	0.0	0.88989	0.6405	
912.0	0.0	0.89502	0.63409	
913.0	0.0	0.90015	0.62512	
914.0	0.0	0.90967	0.61853	
915.0	0.0	0.92065	0.60535	
916.0	0.0	0.93604	0.59491	
917.0	0.0	0.94958	0.57349	
918.0	0.0	0.96222	0.54529	
919.0	0.0	0.97119	0.4986	
920.0	0.0	0.97961	0.44824	
921.0	0.0	0.98657	0.38397	
922.0	0.0	0.99609	0.30927	
923.0	0.0	1.00928	0.23465	
924.0	0.0	1.02686	0.16626	
925.0	0.0	1.04901	0.08789	
926.0	0.0	1.07428	0.03094	
927.0	0.0	1.10046	-0.01813	
928.0	0.0	1.12573	-0.06693	
929.0	0.0	1.14935	-0.11481	
930.0	0.0	1.17041	-0.15747	
931.0	0.0	1.18982	-0.20558	
932.0	0.0	1.2074	-0.24866	
933.0	0.0	1.2226	-0.29865	
934.0	0.0	1.23633	-0.34167	
935.0	0.0	1.24695	-0.3858	
936.0	0.0	1.25391	-0.42664	
937.0	0.0	1.25171	-0.46472	
938.0	0.0	1.24548	-0.50189	
939.0	0.0	1.23047	-0.52954	
940.0	0.0	1.20923	-0.55811	
941.0	0.0	1.1792	-0.58255	
942.0	0.0	1.14478	-0.6048	
943.0	0.0	1.10486	-0.62146	
944.0	0.0	1.06201	-0.63428	
945.0	0.0	1.0188	-0.64133	
946.0	0.0	0.97504	-0.64398	
947.0	0.0	0.93201	-0.63556	
948.0	0.0	0.89172	-0.62531	
949.0	0.0	0.85364	-0.61139	
950.0	0.0	0.82031	-0.58699	
951.0	0.0	0.78955	-0.56232	
952.0	0.0	0.76245	-0.53462	
953.0	0.0	0.73828	-0.50922	
954.0	0.0	0.71704	-0.47598	
955.0	0.0	0.69836	-0.44467	
956.0	0.0	0.68481	-0.41364	
957.0	0.0	0.6731	-0.3783	
958.0	0.0	0.66504	-0.3468	
959.0	0.0	0.65698	-0.30643	
960.0	0.0	0.64893	-0.28491	
961.0	0.0	0.64087	-0.25781	
962.0	0.0	0.63373	-0.22247	
963.0	0.0	0.6264	-0.20929	
964.0	0.0	0.62183	-0.18402	
965.0	0.0	0.6178	-0.14905	
966.0	0.0	0.61725	-0.11865	
967.0	0.0	0.61615	-0.10291	
968.0	0.0	0.6189	-0.07983	
969.0	0.0	0.62054	-0.05933	
970.0	0.0	0.62512	-0.03497	
971.0	0.0	0.62878	-0.0108	
972.0	0.0	0.63538	0.01318	
973.0	0.0	0.64233	0.04395	
974.0	0.0	0.65295	0.05859	
975.0	0.0	0.66431	0.08881	
976.0	0.0	0.67896	0.09723	
977.0	0.0	0.69525	0.11737	
978.0	0.0	0.71521	0.14246	
979.0	0.0	0.73535	0.15289	
980.0	0.0	0.75769	0.17102	
981.0	0.0	0.7793	0.18951	
982.0	0.0	0.802	0.20526	
983.0	0.0	0.82031	0.19849	
984.0	0.0	0.83807	0.20178	
985.0	0.0	0.84961	0.1908	
986.0	0.0	0.85986	0.19281	
987.0	0.0	0.86682	0.17706	
988.0	0.0	0.87634	0.16479	
989.0	0.0	0.88623	0.14905	
990.0	0.0	0.90015	0.12671	
991.0	0.0	0.91516	0.11206	
992.0	0.0	0.93402	0.0965	
993.0	0.0	0.95508	0.07288	
994.0	0.0	0.97778	0.0509	
995.0	0.0	0.99902	0.01978	
996.0	0.0	1.02173	-0.00311	
997.0	0.0	1.04224	-0.02618	
998.0	0.0	1.06274	-0.03552	
999.0	0.0	1.07959	-0.05246	
1000.0	0.0	1.0957	-0.04871	
1001.0	0.0	1.10852	-0.03076	
1002.0	0.0	1.12024	-0.01501	
1003.0	0.0	1.12793	0.00806	
1004.0	0.0	1.13452	0.02856	
1005.0	0.0	1.13782	0.04779	
1006.0	0.0	1.14038	0.07324	
1007.0	0.0	1.14001	0.06793	
1008.0	0.0	1.14075	0.08569	
1009.0	0.0	1.13892	0.0694	
1010.0	0.0	1.13892	0.05969	
1011.0	0.0	1.1391	0.04614	
1012.0	0.0	1.14075	0.04303	
1013.0	0.0	1.14551	0.01007	
1014.0	0.0	1.1521	-0.01703	
1015.0	0.0	1.15723	-0.04926	
1016.0	0.0	1.16382	-0.08258	
1017.0	0.0	1.17041	-0.117	
1018.0	0.0	1.1759	-0.14575	
1019.0	0.0	1.17957	-0.16644	
1020.0	0.0	1.18506	-0.19318	
1021.0	0.0	1.18835	-0.21222	
1022.0	0.0	1.19604	-0.22815	
1023.0	0.0	1.20044	-0.24884	
1024.0	0.0	1.20886	-0.26221	
1025.0	0.0	1.21509	-0.28162	
1026.0	0.0	1.22424	-0.29718	
1027.0	0.0	1.23157	-0.3111	
1028.0	0.0	1.24072	-0.32227	
1029.0	0.0	1.24805	-0.32593	
1030.0	0.0	1.25702	-0.33032	
1031.0	0.0	1.26489	-0.33362	
1032.0	0.0	1.27222	-0.33069	
1033.0	0.0	1.27881	-0.32648	
1034.0	0.0	1.2854	-0.3284	
1035.0	0.0	1.28796	-0.32922	
1036.0	0.0	1.28943	-0.32428	
1037.0	0.0	1.28687	-0.31641	
1038.0	0.0	1.28101	-0.30853	
1039.0	0.0	1.27185	-0.29791	
1040.0	0.0	1.26288	-0.28308	
1041.0	0.0	1.25134	-0.27081	
1042.0	0.0	1.24036	-0.25049	
1043.0	0.0	1.2301	-0.22778	
1044.0	0.0	1.22168	-0.20453	
1045.0	0.0	1.21436	-0.18219	
1046.0	0.0	1.20776	-0.1593	
1047.0	0.0	1.20117	-0.14008	
1048.0	0.0	1.19824	-0.11646	
1049.0	0.0	1.19604	-0.09375	
1050.0	0.0	1.19824	-0.06372	
1051.0	0.0	1.20117	-0.03168	
1052.0	0.0	1.2074	0.0108	
1053.0	0.0	1.21216	0.026	
1054.0	0.0	1.21912	0.05273	
1055.0	0.0	1.22644	0.07526	
1056.0	0.0	1.23486	0.10291	
1057.0	0.0	1.24036	0.12433	
1058.0	0.0	1.2475	0.15266	
1059.0	0.0	1.25317	0.18494	
1060.0	0.0	1.25995	0.20013	
1061.0	0.0	1.26636	0.22083	
1062.0	0.0	1.27332	0.24902	
1063.0	0.0	1.27881	0.25781	
1064.0	0.0	1.28613	0.28656	
1065.0	0.0	1.28979	0.297	
1066.0	0.0	1.29639	0.31055	
1067.0	0.0	1.30005	0.32721	
1068.0	0.0	1.30591	0.35815	
1069.0	0.0	1.3103	0.36475	
1070.0	0.0	1.31543	0.38416	
1071.0	0.0	1.31873	0.39001	
1072.0	0.0	1.32275	0.40631	
1073.0	0.0	1.32422	0.39972	
1074.0	0.0	1.32806	0.40924	
1075.0	0.0	1.32971	0.41693	
1076.0	0.0	1.33154	0.42371	
1077.0	0.0	1.33044	0.43799	
1078.0	0.0	1.32861	0.44019	
1079.0	0.0	1.32532	0.45557	
1080.0	0.0	1.32275	0.46289	
1081.0	0.0	1.31873	0.44769	
1082.0	0.0	1.31763	0.46985	
1083.0	0.0	1.31543	0.45465	
1084.0	0.0	1.3125	0.4671	
1085.0	0.0	1.30994	0.45813	
1086.0	0.0	1.30737	0.47131	
1087.0	0.0	1.30225	0.46216	
1088.0	0.0	1.29858	0.48303	
1089.0	0.0	1.29309	0.47058	
1090.0	0.0	1.28888	0.47388	
1091.0	0.0	1.28174	0.47873	
1092.0	0.0	1.27734	0.48541	
1093.0	0.0	1.26965	0.48633	
1094.0	0.0	1.26343	0.50226	
1095.0	0.0	1.25555	0.49374	
1096.0	0.0	1.24915	0.49805	
1097.0	0.0	1.24164	0.51215	
1098.0	0.0	1.2356	0.51453	
1099.0	0.0	1.229	0.50665	
1100.0	0.0	1.22461	0.52185	
1101.0	0.0	1.21948	0.51196	
1102.0	0.0	1.21582	0.51562	
1103.0	0.0	1.21106	0.51544	
1104.0	0.0	1.20813	0.52222	
1105.0	0.0	1.203	0.51782	
1106.0	0.0	1.20044	0.52588	
1107.0	0.0	1.19678	0.52002	
1108.0	0.0	1.19385	0.52295	
1109.0	0.0	1.19055	0.52954	
1110.0	0.0	1.18872	0.52753	
1111.0	0.0	1.18506	0.53284	
1112.0	0.0	1.18359	0.5343	
1113.0	0.0	1.17957	0.54089	
1114.0	0.0	1.17737	0.53558	
1115.0	0.0	1.17334	0.53467	
1116.0	0.0	1.17041	0.53522	
1117.0	0.0	1.16675	0.53925	
1118.0	0.0	1.16473	0.54346	
1119.0	0.0	1.16089	0.5354	
1120.0	0.0	1.15906	0.5462	
1121.0	0.0	1.15668	0.53577	
1122.0	0.0	1.15558	0.54419	
1123.0	0.0	1.15247	0.54016	
1124.0	0.0	1.15137	0.54126	
1125.0	0.0	1.14771	0.53064	
1126.0	0.0	1.14551	0.53796	
1127.0	0.0	1.14294	0.53156	
1128.0	0.0	1.14258	0.54089	
1129.0	0.0	1.14221	0.5376	
1130.0	0.0	1.14551	0.54437	
1131.0	0.0	1.14697	0.53522	
1132.0	0.0	1.14954	0.53906	
1133.0	0.0	1.14935	0.53503	
1134.0	0.0	1.15137	0.53339	
1135.0	0.0	1.15027	0.52991	
1136.0	0.0	1.15155	0.53101	
1137.0	0.0	1.15137	0.53119	
1138.0	0.0	1.1521	0.5343	
1139.0	0.0	1.1499	0.54419	
1140.0	0.0	1.14917	0.53778	
1141.0	0.0	1.14276	0.53943	
1142.0	0.0	1.13452	0.52991	
1143.0	0.0	1.12207	0.52368	
1144.0	0.0	1.10724	0.51123	
1145.0	0.0	1.08691	0.50208	
1146.0	0.0	1.06604	0.49713	
1147.0	0.0	1.04242	0.48596	
1148.0	0.0	1.01807	0.46893	
1149.0	0.0	0.99023	0.43817	
1150.0	0.0	0.96094	0.41711	
1151.0	0.0	0.92761	0.39148	
1152.0	0.0	0.89575	0.35889	
1153.0	0.0	0.86169	0.32739	
1154.0	0.0	0.82983	0.30396	
1155.0	0.0	0.79834	0.28345	
1156.0	0.0	0.76904	0.26862	
1157.0	0.0	0.73901	0.26331	
1158.0	0.0	0.71338	0.25195	
1159.0	0.0	0.68811	0.24426	
1160.0	0.0	0.66577	0.24243	
1161.0	0.0	0.64233	0.23254	
1162.0	0.0	0.62146	0.21844	
1163.0	0.0	0.60223	0.20325	
1164.0	0.0	0.58667	0.18782	
1165.0	0.0	0.57605	0.16626	
1166.0	0.0	0.56982	0.15097	
1167.0	0.0	0.56598	0.12653	
1168.0	0.0	0.56616	0.11646	
1169.0	0.0	0.56763	0.1051	
1170.0	0.0	0.57239	0.09668	
1171.0	0.0	0.5766	0.09174	
1172.0	0.0	0.58191	0.09467	
1173.0	0.0	0.58374	0.10785	
1174.0	0.0	0.58447	0.12579	
1175.0	0.0	0.58044	0.14941	
1176.0	0.0	0.57642	0.18439	
1177.0	0.0	0.56726	0.21405	
1178.0	0.0	0.55481	0.25507	
1179.0	0.0	0.53796	0.2937	
1180.0	0.0	0.5191	0.33032	
1181.0	0.0	0.4953	0.37738	
1182.0	0.0	0.47058	0.41327	
1183.0	0.0	0.44238	0.45026	
1184.0	0.0	0.41492	0.48322	
1185.0	0.0	0.38416	0.51123	
1186.0	0.0	0.35193	0.53613	
1187.0	0.0	0.31494	0.57019	
1188.0	0.0	0.27759	0.59088	
1189.0	0.0	0.23584	0.60764	
1190.0	0.0	0.19208	0.63538	
1191.0	0.0	0.14447	0.6524	
1192.0	0.0	0.09503	0.66907	
1193.0	0.0	0.04138	0.69168	
1194.0	0.0	-0.01465	0.7088	
1195.0	0.0	-0.07434	0.72308	
1196.0	0.0	-0.13623	0.74011	
1197.0	0.0	-0.2027	0.76062	
1198.0	0.0	-0.271	0.78406	
1199.0	0.0	-0.34167	0.79715	
1200.0	0.0	-0.40851	0.81848	
1201.0	0.0	-0.47049	0.83093	
1202.0	0.0	-0.52936	0.85309	
1203.0	0.0	-0.58447	0.86353	
1204.0	0.0	-0.63647	0.88257	
1205.0	0.0	-0.68509	0.89594	
1206.0	0.0	-0.73059	0.90875	
1207.0	0.0	-0.7738	0.9245	
1208.0	0.0	-0.8139	0.94153	
1209.0	0.0	-0.85217	0.95288	
1210.0	0.0	-0.88843	0.96936	
1211.0	0.0	-0.92221	0.98584	
1212.0	0.0	-0.95416	1.00323	
1213.0	0.0	-0.98474	1.0177	
1214.0	0.0	-1.01367	1.0448	
1215.0	0.0	-1.04041	1.05652	
1216.0	0.0	-1.06604	1.0816	
1217.0	0.0	-1.0903	1.09863	
1218.0	0.0	-1.11287	1.11914	
1219.0	0.0	-1.13429	1.13654	
1220.0	0.0	-1.15475	1.15704	
1221.0	0.0	-1.17371	1.17847	
1222.0	0.0	-1.1922	1.18213	
1223.0	0.0	-1.20955	1.21234	
1224.0	0.0	-1.22534	1.22882	
1225.0	0.0	-1.24045	1.24091	
1226.0	0.0	-1.25409	1.25423	
1227.0	0.0	-1.26819	1.27039	
1228.0	0.0	-1.28009	1.28174	
1229.0	0.0	-1.29222	1.28979	
1230.0	0.0	-1.30344	1.30627	
1231.0	0.0	-1.31415	1.31488	
1232.0	0.0	-1.32335	1.32294	
1233.0	0.0	-1.33301	1.33118	
1234.0	0.0	-1.34097	1.34271	
1235.0	0.0	-1.34949	1.34399	
1236.0	0.0	-1.35635	1.35736	
1237.0	0.0	-1.36404	1.35901	
1238.0	0.0	-1.37068	1.36963	
1239.0	0.0	-1.37796	1.37036	
1240.0	0.0	-1.383	1.3775	
1241.0	0.0	-1.38922	1.38464	
1242.0	0.0	-1.39334	1.38812	
1243.0	0.0	-1.39929	1.39636	
1244.0	0.0	-1.40227	1.40497	
1245.0	0.0	-1.40607	1.39893	
1246.0	0.0	-1.40717	1.40405	
1247.0	0.0	-1.40955	1.40479	
1248.0	0.0	-1.41074	1.41797	
1249.0	0.0	-1.41312	1.41138	
1250.0	0.0	-1.41389	1.41431	
1251.0	0.0	-1.41531	1.41357	
1252.0	0.0	-1.41435	1.41595	
1253.0	0.0	-1.41476	1.41925	
1254.0	0.0	-1.41234	1.42346	
1255.0	0.0	-1.41257	1.42996	
1256.0	0.0	-1.41055	1.43481	
1257.0	0.0	-1.41133	1.43665	
1258.0	0.0	-1.41005	1.41394	
1259.0	0.0	-1.41046	1.43536	
1260.0	0.0	-1.40881	1.44635	
1261.0	0.0	-1.40781	1.4447	
1262.0	0.0	-1.4046	1.44159	
1263.0	0.0	-1.40208	1.4491	
1264.0	0.0	-1.39764	1.44617	
1265.0	0.0	-1.3927	1.44617	
1266.0	0.0	-1.38524	1.4502	
1267.0	0.0	-1.37883	1.448	
1268.0	0.0	-1.36935	1.45422	
1269.0	0.0	-1.36116	1.44434	
1270.0	0.0	-1.35022	1.44855	
1271.0	0.0	-1.3396	1.44635	
1272.0	0.0	-1.32582	1.43573	
1273.0	0.0	-1.3136	1.43793	
1274.0	0.0	-1.29927	1.43903	
1275.0	0.0	-1.28632	1.4295	
1276.0	0.0	-1.27203	1.41888	
1277.0	0.0	-1.25931	1.40479	
1278.0	0.0	-1.24402	1.39929	
1279.0	0.0	-1.2301	1.39307	
1280.0	0.0	-1.21436	1.38226	
1281.0	0.0	-1.20131	1.36267	
1282.0	0.0	-1.18694	1.35791	
1283.0	0.0	-1.17407	1.34766	
1284.0	0.0	-1.15865	1.34619	
1285.0	0.0	-1.14308	1.33447	
1286.0	0.0	-1.12482	1.3244	
1287.0	0.0	-1.10623	1.30957	
1288.0	0.0	-1.0854	1.31653	
1289.0	0.0	-1.06622	1.30609	
1290.0	0.0	-1.04457	1.31158	
1291.0	0.0	-1.02557	1.30774	
1292.0	0.0	-1.00507	1.30701	
1293.0	0.0	-0.98749	1.2995	
1294.0	0.0	-0.96877	1.30756	
1295.0	0.0	-0.95251	1.3011	
1296.0	0.0	-0.93549	1.3125	
1297.0	0.0	-0.92047	1.31854	
1298.0	0.0	-0.90445	1.33154	
1299.0	0.0	-0.89035	1.33429	
1300.0	0.0	-0.87506	1.33557	
1301.0	0.0	-0.86133	1.34656	
1302.0	0.0	-0.8465	1.35864	
1303.0	0.0	-0.83386	1.35965	
1304.0	0.0	-0.82059	1.36963	
1305.0	0.0	-0.80969	1.37	
1306.0	0.0	-0.79861	1.37457	
1307.0	0.0	-0.78809	1.38684	
1308.0	0.0	-0.77655	1.38849	
1309.0	0.0	-0.76776	1.39893	
1310.0	0.0	-0.75787	1.40387	
1311.0	0.0	-0.74963	1.40277	
1312.0	0.0	-0.74011	1.41412	
1313.0	0.0	-0.7326	1.41248	
1314.0	0.0	-0.72308	1.4165	
1315.0	0.0	-0.71613	1.42072	
1316.0	0.0	-0.70862	1.42218	
1317.0	0.0	-0.70386	1.41412	
1318.0	0.0	-0.69745	1.41357	
1319.0	0.0	-0.69324	1.41412	
1320.0	0.0	-0.68774	1.41614	
1321.0	0.0	-0.68408	1.41284	
1322.0	0.0	-0.67932	1.41431	
1323.0	0.0	-0.67703	1.41156	
1324.0	0.0	-0.67236	1.41614	
1325.0	0.0	-0.6698	1.41138	
1326.0	0.0	-0.66614	1.42053	
1327.0	0.0	-0.66394	1.41632	
1328.0	0.0	-0.6601	1.41724	
1329.0	0.0	-0.65735	1.41943	
1330.0	0.0	-0.65204	1.41669	
1331.0	0.0	-0.64819	1.4198	
1332.0	0.0	-0.64233	1.42419	
1333.0	0.0	-0.63794	1.43079	
1334.0	0.0	-0.63171	1.42584	
1335.0	0.0	-0.62622	1.42786	
1336.0	0.0	-0.61853	1.43001	
1337.0	0.0	-0.61121	1.42676	
1338.0	0.0	-0.6015	1.42896	
1339.0	0.0	-0.59253	1.43001	
1340.0	0.0	-0.58044	1.43326	
1341.0	0.0	-0.56873	1.43921	
1342.0	0.0	-0.55573	1.43555	
1343.0	0.0	-0.54346	1.43848	
1344.0	0.0	-0.52789	1.43646	
1345.0	0.0	-0.51343	1.44617	
1346.0	0.0	-0.49622	1.44507	
1347.0	0.0	-0.47937	1.448	
1348.0	0.0	-0.45886	1.44965	
1349.0	0.0	-0.43964	1.45001	
1350.0	0.0	-0.41785	1.45312	
1351.0	0.0	-0.39789	1.45459	
1352.0	0.0	-0.3761	1.45789	
1353.0	0.0	-0.35449	1.46082	
1354.0	0.0	-0.33087	1.4621	
1355.0	0.0	-0.30679	1.46338	
1356.0	0.0	-0.27905	1.46356	
1357.0	0.0	-0.25122	1.46448	
1358.0	0.0	-0.21991	1.47015	
1359.0	0.0	-0.1886	1.46851	
1360.0	0.0	-0.15527	1.46777	
1361.0	0.0	-0.12231	1.46686	
1362.0	0.0	-0.08789	1.46777	
1363.0	0.0	-0.05383	1.46777	
1364.0	0.0	-0.01685	1.47162	
1365.0	0.0	0.02051	1.47253	
1366.0	0.0	0.06042	1.47437	
1367.0	0.0	0.09924	1.4751	
1368.0	0.0	0.13934	1.47583	
1369.0	0.0	0.17798	1.47418	
1370.0	0.0	0.21625	1.47235	
1371.0	0.0	0.25214	1.47198	
1372.0	0.0	0.28857	1.47198	
1373.0	0.0	0.32172	1.4718	
1374.0	0.0	0.35815	1.47144	
1375.0	0.0	0.39221	1.46448	
1376.0	0.0	0.42773	1.46338	
1377.0	0.0	0.46198	1.45898	
1378.0	0.0	0.49878	1.44818	
1379.0	0.0	0.53503	1.44965	
1380.0	0.0	0.57239	1.45239	
1381.0	0.0	0.60901	1.45605	
1382.0	0.0	0.64856	1.45422	
1383.0	0.0	0.68848	1.46155	
1384.0	0.0	0.73132	1.4621	
1385.0	0.0	0.77325	1.4632	
1386.0	0.0	0.81335	1.4593	
1387.0	0.0	0.85181	1.46027	
1388.0	0.0	0.88806	1.4599	
1389.0	0.0	0.92249	1.45679	
1390.0	0.0	0.95435	1.45789	
1391.0	0.0	0.98456	1.45569	
1392.0	0.0	1.01367	1.46191	
1393.0	0.0	1.04095	1.46265	
1394.0	0.0	1.06604	1.46301	
1395.0	0.0	1.09058	1.46814	
1396.0	0.0	1.1142	1.46906	
1397.0	0.0	1.13397	1.46777	
1398.0	0.0	1.1543	1.46997	
1399.0	0.0	1.17407	1.46851	
1400.0	0.0	1.19238	1.47034	
1401.0	0.0	1.2085	1.47107	
1402.0	0.0	1.22571	1.47217	
1403.0	0.0	1.24072	1.47455	
1404.0	0.0	1.2561	1.47638	
1405.0	0.0	1.26947	1.4729	
1406.0	0.0	1.2832	1.47308	
1407.0	0.0	1.29456	1.47308	
1408.0	0.0	1.30664	1.46997	
1409.0	0.0	1.31616	1.46667	
1410.0	0.0	1.32715	1.46887	
1411.0	0.0	1.33557	1.46667	
1412.0	0.0	1.34509	1.46832	
1413.0	0.0	1.35388	1.46118	
1414.0	0.0	1.36194	1.45496	
1415.0	0.0	1.36926	1.45148	
1416.0	0.0	1.37622	1.44653	
1417.0	0.0	1.38354	1.43994	
1418.0	0.0	1.38977	1.44173	
1419.0	0.0	1.39471	1.4469	
1420.0	0.0	1.40112	1.44562	
1421.0	0.0	1.40497	1.448	
1422.0	0.0	1.41028	1.45404	
1423.0	0.0	1.41431	1.45074	
1424.0	0.0	1.42017	1.45093	
1425.0	0.0	1.42456	1.44141	
1426.0	0.0	1.42896	1.4317	
1427.0	0.0	1.43298	1.41797	
1428.0	0.0	1.43738	1.41046	
1429.0	0.0	1.44031	1.39398	
1430.0	0.0	1.44434	1.38593	
1431.0	0.0	1.44653	1.36523	
1432.0	0.0	1.44946	1.34793	
1433.0	0.0	1.45166	1.32147	
1434.0	0.0	1.45386	1.29456	
1435.0	0.0	1.45459	1.25427	
1436.0	0.0	1.45752	1.21179	
1437.0	0.0	1.45752	1.16309	
1438.0	0.0	1.45898	1.1142	
1439.0	0.0	1.45642	1.06146	
1440.0	0.0	1.45532	1.00813	
1441.0	0.0	1.45312	0.95361	
1442.0	0.0	1.45093	0.90161	
1443.0	0.0	1.4458	0.84906	
1444.0	0.0	1.44067	0.79559	
1445.0	0.0	1.43408	0.74377	
1446.0	0.0	1.42786	0.68646	
1447.0	0.0	1.41962	0.63611	
1448.0	0.0	1.41064	0.57715	
1449.0	0.0	1.40186	0.52094	
1450.0	0.0	1.39233	0.44495	
1451.0	0.0	1.37988	0.39001	
1452.0	0.0	1.36963	0.29901	
1453.0	0.0	1.35901	0.22998	
1454.0	0.0	1.34985	0.14301	
1455.0	0.0	1.33923	0.04669	
1456.0	0.0	1.32935	-0.03735	
1457.0	0.0	1.31873	-0.11151	
1458.0	0.0	1.3136	-0.18091	
1459.0	0.0	1.30884	-0.23895	
1460.0	0.0	1.30664	-0.29224	
1461.0	0.0	1.30518	-0.33801	
1462.0	0.0	1.30591	-0.37866	
1463.0	0.0	1.30518	-0.42023	
1464.0	0.0	1.30811	-0.45959	
1465.0	0.0	1.3114	-0.50409	
1466.0	0.0	1.31689	-0.54163	
1467.0	0.0	1.32129	-0.5788	
1468.0	0.0	1.3288	-0.60883	
1469.0	0.0	1.33594	-0.63895	
1470.0	0.0	1.34399	-0.66412	
1471.0	0.0	1.35388	-0.69168	
1472.0	0.0	1.36377	-0.71777	
1473.0	0.0	1.37256	-0.74112	
1474.0	0.0	1.38245	-0.76648	
1475.0	0.0	1.3905	-0.78896	
1476.0	0.0	1.39893	-0.80191	
1477.0	0.0	1.40552	-0.81976	
1478.0	0.0	1.41248	-0.82837	
1479.0	0.0	1.41724	-0.85089	
1480.0	0.0	1.4231	-0.86664	
1481.0	0.0	1.42749	-0.88257	
1482.0	0.0	1.43262	-0.90417	
1483.0	0.0	1.43518	-0.9164	
1484.0	0.0	1.43958	-0.92432	
1485.0	0.0	1.44214	-0.94038	
1486.0	0.0	1.44653	-0.95178	
1487.0	0.0	1.44873	-0.9678	
1488.0	0.0	1.45239	-0.98584	
1489.0	0.0	1.45459	-1.00525	
1490.0	0.0	1.45752	-1.01935	
1491.0	0.0	1.45972	-1.03986	
1492.0	0.0	1.46265	-1.05606	
1493.0	0.0	1.46484	-1.07739	
1494.0	0.0	1.46741	-1.0957	
1495.0	0.0	1.46887	-1.11237	
1496.0	0.0	1.47144	-1.12903	
1497.0	0.0	1.47253	-1.14688	
1498.0	0.0	1.47363	-1.1608	
1499.0	0.0	1.47363	-1.17339	
1500.0	0.0	1.47546	-1.18213	
1501.0	0.0	1.47583	-1.19376	
1502.0	0.0	1.47766	-1.19394	
1503.0	0.0	1.47876	-1.19412	
1504.0	0.0	1.47986	-1.19522	
1505.0	0.0	1.48096	-1.19783	
1506.0	0.0	1.48242	-1.19847	
1507.0	0.0	1.48224	-1.20094	
1508.0	0.0	1.48315	-1.19678	
1509.0	0.0	1.48242	-1.19733	
1510.0	0.0	1.48352	-1.18396	
1511.0	0.0	1.48389	-1.17407	
1512.0	0.0	1.48462	-1.16011	
1513.0	0.0	1.48462	-1.15096	
1514.0	0.0	1.48535	-1.13452	
1515.0	0.0	1.48499	-1.125	
1516.0	0.0	1.48608	-1.10687	
1517.0	0.0	1.48553	-1.08957	
1518.0	0.0	1.48682	-1.07941	
1519.0	0.0	1.48608	-1.05835	
1520.0	0.0	1.48718	-1.03995	
1521.0	0.0	1.48755	-1.02425	
1522.0	0.0	1.48773	-1.00305	
1523.0	0.0	1.48755	-0.9906	
1524.0	0.0	1.48865	-0.9722	
1525.0	0.0	1.48846	-0.96167	
1526.0	0.0	1.48975	-0.93814	
1527.0	0.0	1.48901	-0.92569	
1528.0	0.0	1.48975	-0.90125	
1529.0	0.0	1.48901	-0.8876	
1530.0	0.0	1.48938	-0.86673	
1531.0	0.0	1.48828	-0.84512	
1532.0	0.0	1.48938	-0.82672	
1533.0	0.0	1.48828	-0.81262	
1534.0	0.0	1.48865	-0.79266	
1535.0	0.0	1.487	-0.77563	
1536.0	0.0	1.48773	-0.75879	
1537.0	0.0	1.48828	-0.73897	
1538.0	0.0	1.4892	-0.72372	
1539.0	0.0	1.48828	-0.70349	
1540.0	0.0	1.48865	-0.68372	
1541.0	0.0	1.48792	-0.66412	
1542.0	0.0	1.48828	-0.64856	
1543.0	0.0	1.48755	-0.62366	
1544.0	0.0	1.48792	-0.60132	
1545.0	0.0	1.48755	-0.58292	
1546.0	0.0	1.48901	-0.55884	
1547.0	0.0	1.48828	-0.5408	
1548.0	0.0	1.48901	-0.51434	
1549.0	0.0	1.49048	-0.49127	
1550.0	0.0	1.49121	-0.46143	
1551.0	0.0	1.49048	-0.44147	
1552.0	0.0	1.49121	-0.41656	
1553.0	0.0	1.49121	-0.39203	
1554.0	0.0	1.49249	-0.36566	
1555.0	0.0	1.49268	-0.33893	
1556.0	0.0	1.49341	-0.30688	
1557.0	0.0	1.49341	-0.27695	
1558.0	0.0	1.49414	-0.24188	
1559.0	0.0	1.49377	-0.20068	
1560.0	0.0	1.49414	-0.17487	
1561.0	0.0	1.49487	-0.13916	
1562.0	0.0	1.49469	-0.10345	
1563.0	0.0	1.49561	-0.06775	
1564.0	0.0	1.49561	-0.02893	
1565.0	0.0	1.49414	0.01062	
1566.0	0.0	1.49561	0.05328	
1567.0	0.0	1.49414	0.10107	
1568.0	0.0	1.49414	0.13824	
1569.0	0.0	1.49268	0.17395	
1570.0	0.0	1.49341	0.21899	
1571.0	0.0	1.49048	0.25214	
1572.0	0.0	1.49121	0.29938	
1573.0	0.0	1.48975	0.33087	
1574.0	0.0	1.49084	0.35596	
1575.0	0.0	1.48901	0.40411	
1576.0	0.0	1.48975	0.43469	
1577.0	0.0	1.48828	0.45374	
1578.0	0.0	1.48975	0.49603	
1579.0	0.0	1.48755	0.51178	
1580.0	0.0	1.48755	0.54419	
1581.0	0.0	1.48755	0.57129	
1582.0	0.0	1.48755	0.58612	
1583.0	0.0	1.48462	0.60498	
1584.0	0.0	1.48535	0.62494	
1585.0	0.0	1.48462	0.64929	
1586.0	0.0	1.48425	0.65643	
1587.0	0.0	1.48315	0.67896	
1588.0	0.0	1.48315	0.68958	
1589.0	0.0	1.48242	0.70276	
1590.0	0.0	1.4826	0.70569	
1591.0	0.0	1.48206	0.71979	
1592.0	0.0	1.48352	0.71906	
1593.0	0.0	1.48242	0.72198	
1594.0	0.0	1.48279	0.73553	
1595.0	0.0	1.48242	0.73151	
1596.0	0.0	1.48169	0.7207	
1597.0	0.0	1.47949	0.71512	
1598.0	0.0	1.47729	0.70697	
1599.0	0.0	1.47253	0.68903	
1600.0	0.0	1.46686	0.66284	
1601.0	0.0	1.45789	0.65222	
1602.0	0.0	1.45093	0.63226	
1603.0	0.0	1.44031	0.60809	
1604.0	0.0	1.43262	0.59674	
1605.0	0.0	1.42383	0.57129	
1606.0	0.0	1.41614	0.55975	
1607.0	0.0	1.40918	0.53595	
1608.0	0.0	1.40405	0.51965	
1609.0	0.0	1.39819	0.50208	
1610.0	0.0	1.39343	0.50116	
1611.0	0.0	1.39014	0.4856	
1612.0	0.0	1.38757	0.45831	
1613.0	0.0	1.38391	0.42737	
1614.0	0.0	1.38281	0.42078	
1615.0	0.0	1.38062	0.39221	
1616.0	0.0	1.38098	0.36768	
1617.0	0.0	1.37952	0.3598	
1618.0	0.0	1.37915	0.34094	
1619.0	0.0	1.37805	0.30981	
1620.0	0.0	1.37769	0.30176	
1621.0	0.0	1.37585	0.26971	
1622.0	0.0	1.37622	0.25378	
1623.0	0.0	1.37585	0.23657	
1624.0	0.0	1.37659	0.20197	
1625.0	0.0	1.37695	0.1853	
1626.0	0.0	1.37622	0.1582	
1627.0	0.0	1.37439	0.13696	
1628.0	0.0	1.37256	0.12415	
1629.0	0.0	1.3678	0.09613	
1630.0	0.0	1.3667	0.0769	
1631.0	0.0	1.3623	0.05841	
1632.0	0.0	1.35974	0.03937	
1633.0	0.0	1.35645	0.02948	
1634.0	0.0	1.35498	0.00714	
1635.0	0.0	1.35388	-0.01904	
1636.0	0.0	1.35461	-0.03772	
1637.0	0.0	1.35425	-0.06134	
1638.0	0.0	1.35645	-0.08679	
1639.0	0.0	1.35645	-0.10515	
1640.0	0.0	1.35754	-0.1311	
1641.0	0.0	1.35681	-0.15088	
1642.0	0.0	1.35864	-0.16681	
1643.0	0.0	1.35828	-0.18805	
1644.0	0.0	1.35938	-0.19958	
1645.0	0.0	1.36011	-0.21863	
1646.0	0.0	1.36304	-0.23438	
1647.0	0.0	1.36523	-0.25168	
1648.0	0.0	1.3678	-0.27264	
1649.0	0.0	1.37036	-0.29407	
1650.0	0.0	1.37329	-0.31622	
1651.0	0.0	1.37439	-0.34332	
1652.0	0.0	1.37622	-0.36777	
1653.0	0.0	1.37476	-0.39825	
1654.0	0.0	1.37256	-0.41437	
1655.0	0.0	1.36743	-0.44312	
1656.0	0.0	1.36377	-0.46436	
1657.0	0.0	1.35645	-0.48871	
1658.0	0.0	1.35132	-0.50793	
1659.0	0.0	1.34473	-0.53265	
1660.0	0.0	1.3374	-0.55518	
1661.0	0.0	1.32715	-0.57971	
1662.0	0.0	1.31836	-0.60004	
1663.0	0.0	1.30664	-0.61652	
1664.0	0.0	1.29565	-0.63464	
1665.0	0.0	1.28394	-0.65112	
1666.0	0.0	1.27258	-0.66943	
1667.0	0.0	1.26086	-0.67841	
1668.0	0.0	1.25098	-0.69022	
1669.0	0.0	1.23853	-0.70363	
1670.0	0.0	1.229	-0.72198	
1671.0	0.0	1.21729	-0.73645	
1672.0	0.0	1.20703	-0.75403	
1673.0	0.0	1.19458	-0.77362	
1674.0	0.0	1.18469	-0.78021	
1675.0	0.0	1.17297	-0.7901	
1676.0	0.0	1.16309	-0.80942	
1677.0	0.0	1.15283	-0.82544	
1678.0	0.0	1.14404	-0.84045	
1679.0	0.0	1.13525	-0.86884	
1680.0	0.0	1.12903	-0.88037	
1681.0	0.0	1.12134	-0.90509	
1682.0	0.0	1.11584	-0.91832	
1683.0	0.0	1.10962	-0.93961	
1684.0	0.0	1.10486	-0.95142	
1685.0	0.0	1.10193	-0.97009	
1686.0	0.0	1.09827	-0.97687	
1687.0	0.0	1.09534	-0.99115	
1688.0	0.0	1.09424	-0.99417	
1689.0	0.0	1.09241	-1.00076	
1690.0	0.0	1.09277	-1.0058	
1691.0	0.0	1.09021	-1.01505	
1692.0	0.0	1.08911	-1.01587	
1693.0	0.0	1.08618	-1.01743	
1694.0	0.0	1.08545	-1.0274	
1695.0	0.0	1.08289	-1.03729	
1696.0	0.0	1.08179	-1.05194	
1697.0	0.0	1.07922	-1.06219	
1698.0	0.0	1.07666	-1.0686	
1699.0	0.0	1.07245	-1.08234	
1700.0	0.0	1.06824	-1.09772	
1701.0	0.0	1.06274	-1.1109	
1702.0	0.0	1.05981	-1.12994	
1703.0	0.0	1.05542	-1.13882	
1704.0	0.0	1.05286	-1.15027	
1705.0	0.0	1.04919	-1.15736	
1706.0	0.0	1.04736	-1.15878	
1707.0	0.0	1.04443	-1.17197	
1708.0	0.0	1.04114	-1.17764	
1709.0	0.0	1.03784	-1.18689	
1710.0	0.0	1.03418	-1.18909	
1711.0	0.0	1.02979	-1.19513	
1712.0	0.0	1.02832	-1.20277	
1713.0	0.0	1.02502	-1.20905	
1714.0	0.0	1.02411	-1.21811	
1715.0	0.0	1.02191	-1.22296	
1716.0	0.0	1.02063	-1.22992	
1717.0	0.0	1.0177	-1.24072	
1718.0	0.0	1.01495	-1.24947	
1719.0	0.0	1.01111	-1.26196	
1720.0	0.0	1.00781	-1.27162	
1721.0	0.0	1.00378	-1.28357	
1722.0	0.0	0.99939	-1.2963	
1723.0	0.0	0.99316	-1.30902	
1724.0	0.0	0.98932	-1.31488	
1725.0	0.0	0.98383	-1.32587	
1726.0	0.0	0.97998	-1.33603	
1727.0	0.0	0.97266	-1.34592	
1728.0	0.0	0.96716	-1.34766	
1729.0	0.0	0.96167	-1.36327	
1730.0	0.0	0.95728	-1.36899	
1731.0	0.0	0.95142	-1.36404	
1732.0	0.0	0.94922	-1.36688	
1733.0	0.0	0.94666	-1.36807	
1734.0	0.0	0.94592	-1.3661	
1735.0	0.0	0.94446	-1.37787	
1736.0	0.0	0.94336	-1.3797	
1737.0	0.0	0.94153	-1.38336	
1738.0	0.0	0.9408	-1.38126	
1739.0	0.0	0.93896	-1.39046	
1740.0	0.0	0.93915	-1.37947	
1741.0	0.0	0.93896	-1.37608	
1742.0	0.0	0.94006	-1.3727	
1743.0	0.0	0.9408	-1.36725	
1744.0	0.0	0.94482	-1.36729	
1745.0	0.0	0.94849	-1.36125	
1746.0	0.0	0.95471	-1.35992	
1747.0	0.0	0.95837	-1.36166	
1748.0	0.0	0.96259	-1.3569	
1749.0	0.0	0.96533	-1.35402	
1750.0	0.0	0.96936	-1.35754	
1751.0	0.0	0.97156	-1.35901	
1752.0	0.0	0.97668	-1.35535	
1753.0	0.0	0.97705	-1.36015	
1754.0	0.0	0.97998	-1.35617	
1755.0	0.0	0.97998	-1.36166	
1756.0	0.0	0.98145	-1.36491	
1757.0	0.0	0.98071	-1.36899	
1758.0	0.0	0.98145	-1.37517	
1759.0	0.0	0.98071	-1.38826	
1760.0	0.0	0.98071	-1.38666	
1761.0	0.0	0.97998	-1.39595	
1762.0	0.0	0.98071	-1.39558	
1763.0	0.0	0.98053	-1.39874	
1764.0	0.0	0.98145	-1.3992	
1765.0	0.0	0.97998	-1.4025	
1766.0	0.0	0.97925	-1.40556	
1767.0	0.0	0.97559	-1.41083	
1768.0	0.0	0.97266	-1.4101	
1769.0	0.0	0.96826	-1.41495	
1770.0	0.0	0.9657	-1.41275	
1771.0	0.0	0.9624	-1.42232	
1772.0	0.0	0.96112	-1.41449	
1773.0	0.0	0.95764	-1.41339	
1774.0	0.0	0.95508	-1.40717	
1775.0	0.0	0.95251	-1.40831	
1776.0	0.0	0.9505	-1.41197	
1777.0	0.0	0.94629	-1.40108	
1778.0	0.0	0.94189	-1.39545	
1779.0	0.0	0.9364	-1.39998	
1780.0	0.0	0.93347	-1.38148	
1781.0	0.0	0.92981	-1.36986	
1782.0	0.0	0.92871	-1.36436	
1783.0	0.0	0.92651	-1.36015	
1784.0	0.0	0.92505	-1.34537	
1785.0	0.0	0.92175	-1.34248	
1786.0	0.0	0.91919	-1.33763	
1787.0	0.0	0.91479	-1.33319	
1788.0	0.0	0.91113	-1.33571	
1789.0	0.0	0.90601	-1.33246	
1790.0	0.0	0.90161	-1.33186	
1791.0	0.0	0.89575	-1.33914	
1792.0	0.0	0.88989	-1.33365	
1793.0	0.0	0.88257	-1.33264	
1794.0	0.0	0.87671	-1.33589	
1795.0	0.0	0.87012	-1.33694	
1796.0	0.0	0.86426	-1.33406	
1797.0	0.0	0.85876	-1.33255	
1798.0	0.0	0.85437	-1.33003	
1799.0	0.0	0.84778	-1.33031	
1800.0	0.0	0.8432	-1.32788	
1801.0	0.0	0.83716	-1.32834	
1802.0	0.0	0.83276	-1.32715	
1803.0	0.0	0.82727	-1.3266	
1804.0	0.0	0.82343	-1.32028	
1805.0	0.0	0.81775	-1.32518	
1806.0	0.0	0.81372	-1.31264	
1807.0	0.0	0.80786	-1.3054	
1808.0	0.0	0.80347	-1.29671	
1809.0	0.0	0.79706	-1.29085	
1810.0	0.0	0.79248	-1.2789	
1811.0	0.0	0.78735	-1.27222	
1812.0	0.0	0.78333	-1.25967	
1813.0	0.0	0.77783	-1.25487	
1814.0	0.0	0.77325	-1.24054	
1815.0	0.0	0.76776	-1.228	
1816.0	0.0	0.76392	-1.22012	
1817.0	0.0	0.75842	-1.20383	
1818.0	0.0	0.75439	-1.19453	
1819.0	0.0	0.75	-1.18204	
1820.0	0.0	0.74744	-1.17329	
1821.0	0.0	0.74487	-1.16542	
1822.0	0.0	0.74451	-1.15334	
1823.0	0.0	0.74487	-1.14166	
1824.0	0.0	0.7467	-1.12784	
1825.0	0.0	0.7478	-1.1169	
1826.0	0.0	0.75165	-1.10083	
1827.0	0.0	0.7533	-1.08417	
1828.0	0.0	0.75586	-1.07501	
1829.0	0.0	0.75696	-1.0611	
1830.0	0.0	0.75916	-1.04718	
1831.0	0.0	0.75897	-1.03981	
1832.0	0.0	0.75989	-1.02155	
1833.0	0.0	0.75879	-1.01056	
1834.0	0.0	0.75879	-1.00131	
1835.0	0.0	0.75623	-0.99078	
1836.0	0.0	0.75476	-0.97906	
1837.0	0.0	0.75183	-0.97687	
1838.0	0.0	0.74927	-0.9705	
1839.0	0.0	0.74414	-0.95723	
1840.0	0.0	0.74011	-0.95233	
1841.0	0.0	0.73425	-0.94684	
1842.0	0.0	0.73059	-0.9418	
1843.0	0.0	0.724	-0.93777	
1844.0	0.0	0.71906	-0.92738	
1845.0	0.0	0.7121	-0.9277	
1846.0	0.0	0.70605	-0.91772	
1847.0	0.0	0.69745	-0.90948	
1848.0	0.0	0.69177	-0.90028	
1849.0	0.0	0.68408	-0.89484	
1850.0	0.0	0.67786	-0.88879	
1851.0	0.0	0.67163	-0.8811	
1852.0	0.0	0.66742	-0.87158	
1853.0	0.0	0.66101	-0.86746	
1854.0	0.0	0.65662	-0.85968	
1855.0	0.0	0.65039	-0.85181	
1856.0	0.0	0.64563	-0.84613	
1857.0	0.0	0.6394	-0.84192	
1858.0	0.0	0.63428	-0.83368	
1859.0	0.0	0.6286	-0.83212	
1860.0	0.0	0.62402	-0.828	
1861.0	0.0	0.61816	-0.81418	
1862.0	0.0	0.6145	-0.80786	
1863.0	0.0	0.60938	-0.7998	
1864.0	0.0	0.60498	-0.79211	
1865.0	0.0	0.60059	-0.79028	
1866.0	0.0	0.59601	-0.77939	
1867.0	0.0	0.59033	-0.77591	
1868.0	0.0	0.58575	-0.76721	
1869.0	0.0	0.57935	-0.76062	
1870.0	0.0	0.57422	-0.7511	
1871.0	0.0	0.56726	-0.74194	
1872.0	0.0	0.5625	-0.73499	
1873.0	0.0	0.55664	-0.73187	
1874.0	0.0	0.55225	-0.71796	
1875.0	0.0	0.54675	-0.71008	
1876.0	0.0	0.54199	-0.69836	
1877.0	0.0	0.53723	-0.68829	
1878.0	0.0	0.5332	-0.67511	
1879.0	0.0	0.52771	-0.66696	
1880.0	0.0	0.52332	-0.64838	
1881.0	0.0	0.52002	-0.63574	
1882.0	0.0	0.51709	-0.62549	
1883.0	0.0	0.5116	-0.6124	
1884.0	0.0	0.5083	-0.60095	
1885.0	0.0	0.50317	-0.59033	
1886.0	0.0	0.49841	-0.57385	
1887.0	0.0	0.49237	-0.56671	
1888.0	0.0	0.48779	-0.5528	
1889.0	0.0	0.48157	-0.53961	
1890.0	0.0	0.47681	-0.53046	
1891.0	0.0	0.47131	-0.52203	
1892.0	0.0	0.46655	-0.50629	
1893.0	0.0	0.46106	-0.48816	
1894.0	0.0	0.45447	-0.47095	
1895.0	0.0	0.44714	-0.46454	
1896.0	0.0	0.43945	-0.4455	
1897.0	0.0	0.4292	-0.43726	
1898.0	0.0	0.41895	-0.41473	
1899.0	0.0	0.40613	-0.41052	
1900.0	0.0	0.39423	-0.39551	
1901.0	0.0	0.38086	-0.37683	
1902.0	0.0	0.36694	-0.37042	
1903.0	0.0	0.35193	-0.3587	
1904.0	0.0	0.33801	-0.33655	
1905.0	0.0	0.323	-0.33344	
1906.0	0.0	0.30981	-0.31842	
1907.0	0.0	0.29407	-0.31842	
1908.0	0.0	0.27869	-0.30743	
1909.0	0.0	0.26111	-0.2937	
1910.0	0.0	0.2428	-0.30267	
1911.0	0.0	0.22394	-0.30267	
1912.0	0.0	0.20508	-0.30286	
1913.0	0.0	0.18494	-0.29333	
1914.0	0.0	0.16553	-0.29205	
1915.0	0.0	0.14429	-0.2926	
1916.0	0.0	0.12305	-0.30048	
1917.0	0.0	0.09778	-0.29517	
1918.0	0.0	0.07104	-0.28894	
1919.0	0.0	0.03973	-0.28912	
1920.0	0.0	0.00824	-0.28473	
1921.0	0.0	-0.02692	-0.28052	
1922.0	0.0	-0.06061	-0.27686	
1923.0	0.0	-0.0954	-0.27704	
1924.0	0.0	-0.12927	-0.27365	
1925.0	0.0	-0.16553	-0.28418	
1926.0	0.0	-0.20142	-0.28619	
1927.0	0.0	-0.24023	-0.29498	
1928.0	0.0	-0.28125	-0.31055	
1929.0	0.0	-0.32666	-0.33344	
1930.0	0.0	-0.3739	-0.34937	
1931.0	0.0	-0.42334	-0.37775	
1932.0	0.0	-0.47241	-0.41968	
1933.0	0.0	-0.52277	-0.45557	
1934.0	0.0	-0.57056	-0.48102	
1935.0	0.0	-0.6178	-0.52515	
1936.0	0.0	-0.66138	-0.57513	
1937.0	0.0	-0.70294	-0.63171	
1938.0	0.0	-0.7392	-0.68738	
1939.0	0.0	-0.77289	-0.74066	
1940.0	0.0	-0.80164	-0.79074	
1941.0	0.0	-0.82745	-0.83578	
1942.0	0.0	-0.84833	-0.879	
1943.0	0.0	-0.86646	-0.91809	
1944.0	0.0	-0.87918	-0.95306	
1945.0	0.0	-0.88692	-0.98868	
1946.0	0.0	-0.88898	-1.01477	
1947.0	0.0	-0.8866	-1.04553	
1948.0	0.0	-0.87561	-1.05981	
1949.0	0.0	-0.8595	-1.07684	
1950.0	0.0	-0.8399	-1.09021	
1951.0	0.0	-0.82196	-1.09474	
1952.0	0.0	-0.80347	-1.08105	
1953.0	0.0	-0.78333	-1.0491	
1954.0	0.0	-0.76025	-0.99454	
1955.0	0.0	-0.73553	-0.93054	
1956.0	0.0	-0.70972	-0.8465	
1957.0	0.0	-0.68701	-0.74945	
1958.0	0.0	-0.66614	-0.63931	
1959.0	0.0	-0.64847	-0.52954	
1960.0	0.0	-0.62915	-0.3988	
1961.0	0.0	-0.60956	-0.27081	
1962.0	0.0	-0.58722	-0.18018	
1963.0	0.0	-0.56305	-0.07819	
1964.0	0.0	-0.5365	0.01721	
1965.0	0.0	-0.50922	0.10602	
1966.0	0.0	-0.48267	0.20251	
1967.0	0.0	-0.45877	0.26953	
1968.0	0.0	-0.43872	0.34241	
1969.0	0.0	-0.42352	0.40356	
1970.0	0.0	-0.41089	0.46564	
1971.0	0.0	-0.40247	0.52844	
1972.0	0.0	-0.39587	0.58667	
1973.0	0.0	-0.39221	0.63849	
1974.0	0.0	-0.38892	0.68262	
1975.0	0.0	-0.38654	0.72931	
1976.0	0.0	-0.38379	0.77435	
1977.0	0.0	-0.38287	0.80273	
1978.0	0.0	-0.38416	0.85327	
1979.0	0.0	-0.39038	0.8811	
1980.0	0.0	-0.39844	0.92175	
1981.0	0.0	-0.41107	0.94684	
1982.0	0.0	-0.42444	0.97906	
1983.0	0.0	-0.44165	0.99536	
1984.0	0.0	-0.45959	1.02173	
1985.0	0.0	-0.48083	1.03152	
1986.0	0.0	-0.50372	1.04773	
1987.0	0.0	-0.53055	1.04974	
1988.0	0.0	-0.55829	1.05615	
1989.0	0.0	-0.5885	1.04956	
1990.0	0.0	-0.61908	1.04407	
1991.0	0.0	-0.6524	1.03107	
1992.0	0.0	-0.68774	1.02319	
1993.0	0.0	-0.72656	1.00488	
1994.0	0.0	-0.7663	0.98438	
1995.0	0.0	-0.80896	0.96826	
1996.0	0.0	-0.85217	0.94336	
1997.0	0.0	-0.8931	0.92249	
1998.0	0.0	-0.92944	0.89282	
1999.0	0.0	-0.96222	0.86389	
2000.0	0.0	-0.99316	0.81738	
2001.0	0.0	-1.02182	0.76721	
2002.0	0.0	-1.04874	0.70496	
2003.0	0.0	-1.07442	0.64215	
2004.0	0.0	-1.09854	0.56543	
2005.0	0.0	-1.12088	0.47571	
2006.0	0.0	-1.14253	0.39606	
2007.0	0.0	-1.16235	0.29553	
2008.0	0.0	-1.18172	0.19739	
2009.0	0.0	-1.19998	0.08862	
2010.0	0.0	-1.21674	-0.00055	
2011.0	0.0	-1.23267	-0.09174	
2012.0	0.0	-1.24777	-0.15857	
2013.0	0.0	-1.26219	-0.2525	
2014.0	0.0	-1.2751	-0.31274	
2015.0	0.0	-1.28796	-0.37994	
2016.0	0.0	-1.29987	-0.45465	
2017.0	0.0	-1.31099	-0.51672	
2018.0	0.0	-1.32179	-0.57944	
2019.0	0.0	-1.33177	-0.63025	
2020.0	0.0	-1.34097	-0.6731	
2021.0	0.0	-1.35013	-0.7234	
2022.0	0.0	-1.358	-0.77692	
2023.0	0.0	-1.36592	-0.81638	
2024.0	0.0	-1.37343	-0.85968	
2025.0	0.0	-1.38025	-0.88751	
2026.0	0.0	-1.38698	-0.93073	
2027.0	0.0	-1.39297	-0.96268	
2028.0	0.0	-1.39774	-0.9884	
2029.0	0.0	-1.40318	-1.01852	
2030.0	0.0	-1.40762	-1.04059	
2031.0	0.0	-1.41229	-1.06375	
2032.0	0.0	-1.41563	-1.0827	
2033.0	0.0	-1.41962	-1.10001	
2034.0	0.0	-1.42282	-1.11401	
2035.0	0.0	-1.42616	-1.12189	
2036.0	0.0	-1.42891	-1.12756	
2037.0	0.0	-1.43285	-1.13031	
2038.0	0.0	-1.43463	-1.12344	
2039.0	0.0	-1.4377	-1.11919	
2040.0	0.0	-1.4398	-1.1066	
2041.0	0.0	-1.44287	-1.09296	
2042.0	0.0	-1.44484	-1.07785	
2043.0	0.0	-1.44814	-1.05414	
2044.0	0.0	-1.44914	-1.03926	
2045.0	0.0	-1.45152	-1.01614	
2046.0	0.0	-1.45303	-0.99884	
2047.0	0.0	-1.45546	-0.98053	
2048.0	0.0	-1.45601	-0.95851	
2049.0	0.0	-1.45743	-0.94821	
2050.0	0.0	-1.45798	-0.93008	
2051.0	0.0	-1.45999	-0.91443	
2052.0	0.0	-1.45949	-0.88275	
2053.0	0.0	-1.45885	-0.87964	
2054.0	0.0	-1.45692	-0.87634	
2055.0	0.0	-1.45642	-0.85272	
2056.0	0.0	-1.45432	-0.83038	
2057.0	0.0	-1.4518	-0.82397	
2058.0	0.0	-1.44653	-0.79628	
2059.0	0.0	-1.44351	-0.79532	
2060.0	0.0	-1.43999	-0.79102	
2061.0	0.0	-1.43903	-0.77765	
2062.0	0.0	-1.43793	-0.7635	
2063.0	0.0	-1.43719	-0.76831	
2064.0	0.0	-1.43637	-0.72638	
2065.0	0.0	-1.43687	-0.73187	
2066.0	0.0	-1.43646	-0.71077	
2067.0	0.0	-1.43678	-0.71008	
2068.0	0.0	-1.43495	-0.69305	
2069.0	0.0	-1.43394	-0.66815	
2070.0	0.0	-1.43317	-0.66458	
2071.0	0.0	-1.43312	-0.63831	
2072.0	0.0	-1.43271	-0.62421	
2073.0	0.0	-1.43564	-0.61743	
2074.0	0.0	-1.43793	-0.61432	
2075.0	0.0	-1.4404	-0.59143	
2076.0	0.0	-1.44177	-0.59344	
2077.0	0.0	-1.44305	-0.58475	
2078.0	0.0	-1.44241	-0.57632	
2079.0	0.0	-1.44196	-0.55243	
2080.0	0.0	-1.43962	-0.55957	
2081.0	0.0	-1.43614	-0.55151	
2082.0	0.0	-1.43033	-0.54199	
2083.0	0.0	-1.42433	-0.52734	
2084.0	0.0	-1.41637	-0.52826	
2085.0	0.0	-1.40918	-0.52881	
2086.0	0.0	-1.4014	-0.51672	
2087.0	0.0	-1.3954	-0.52972	
2088.0	0.0	-1.38799	-0.52863	
2089.0	0.0	-1.38011	-0.52405	
2090.0	0.0	-1.36835	-0.504	
2091.0	0.0	-1.35699	-0.50116	
2092.0	0.0	-1.34431	-0.49329	
2093.0	0.0	-1.33319	-0.47827	
2094.0	0.0	-1.32129	-0.49548	
2095.0	0.0	-1.3103	-0.49805	
2096.0	0.0	-1.29694	-0.49567	
2097.0	0.0	-1.28297	-0.48065	
2098.0	0.0	-1.2654	-0.46536	
2099.0	0.0	-1.2486	-0.47424	
2100.0	0.0	-1.22928	-0.47131	
2101.0	0.0	-1.21033	-0.46948	
2102.0	0.0	-1.18945	-0.46619	
2103.0	0.0	-1.1705	-0.45584	
2104.0	0.0	-1.15169	-0.45044	
2105.0	0.0	-1.13452	-0.43011	
2106.0	0.0	-1.11681	-0.43268	
2107.0	0.0	-1.09991	-0.41235	
2108.0	0.0	-1.08179	-0.41235	
2109.0	0.0	-1.06348	-0.40265	
2110.0	0.0	-1.04544	-0.38681	
2111.0	0.0	-1.02887	-0.36493	
2112.0	0.0	-1.01102	-0.36914	
2113.0	0.0	-0.99527	-0.35559	
2114.0	0.0	-0.97833	-0.34369	
2115.0	0.0	-0.96291	-0.34845	
2116.0	0.0	-0.94666	-0.3316	
2117.0	0.0	-0.93219	-0.32007	
2118.0	0.0	-0.918	-0.3252	
2119.0	0.0	-0.905	-0.30542	
2120.0	0.0	-0.89117	-0.31009	
2121.0	0.0	-0.87726	-0.29242	
2122.0	0.0	-0.86389	-0.27621	
2123.0	0.0	-0.85117	-0.28052	
2124.0	0.0	-0.83789	-0.28413	
2125.0	0.0	-0.82526	-0.2666	
2126.0	0.0	-0.81134	-0.27612	
2127.0	0.0	-0.79861	-0.25854	
2128.0	0.0	-0.78589	-0.27686	
2129.0	0.0	-0.7749	-0.26587	
2130.0	0.0	-0.76382	-0.26202	
2131.0	0.0	-0.75458	-0.24902	
2132.0	0.0	-0.74432	-0.25195	
2133.0	0.0	-0.7348	-0.25177	
2134.0	0.0	-0.72363	-0.24115	
2135.0	0.0	-0.71265	-0.22705	
2136.0	0.0	-0.70212	-0.23584	
2137.0	0.0	-0.69379	-0.22284	
2138.0	0.0	-0.68408	-0.21899	
2139.0	0.0	-0.67603	-0.2027	
2140.0	0.0	-0.66669	-0.1842	
2141.0	0.0	-0.65781	-0.17633	
2142.0	0.0	-0.64746	-0.17963	
2143.0	0.0	-0.63757	-0.17139	
2144.0	0.0	-0.62659	-0.15564	
2145.0	0.0	-0.61555	-0.1403	
2146.0	0.0	-0.60242	-0.13092	
2147.0	0.0	-0.59015	-0.13623	
2148.0	0.0	-0.57568	-0.11133	
2149.0	0.0	-0.56104	-0.11829	
2150.0	0.0	-0.54474	-0.10364	
2151.0	0.0	-0.52844	-0.09119	
2152.0	0.0	-0.51068	-0.08112	
2153.0	0.0	-0.49384	-0.08185	
2154.0	0.0	-0.47516	-0.07635	
2155.0	0.0	-0.45776	-0.05603	
2156.0	0.0	-0.43909	-0.04816	
2157.0	0.0	-0.42004	-0.05933	
2158.0	0.0	-0.40027	-0.0271	
2159.0	0.0	-0.38049	-0.01776	
2160.0	0.0	-0.35944	-0.0141	
2161.0	0.0	-0.33911	-0.00275	
2162.0	0.0	-0.3175	0.01163	
2163.0	0.0	-0.2959	0.02783	
2164.0	0.0	-0.27393	0.03406	
2165.0	0.0	-0.25305	0.05511	
2166.0	0.0	-0.23035	0.07416	
2167.0	0.0	-0.20938	0.07397	
2168.0	0.0	-0.18677	0.09796	
2169.0	0.0	-0.16443	0.11078	
2170.0	0.0	-0.14136	0.12122	
2171.0	0.0	-0.11902	0.13275	
2172.0	0.0	-0.09558	0.15747	
2173.0	0.0	-0.07324	0.16553	
2174.0	0.0	-0.05017	0.18896	
2175.0	0.0	-0.02728	0.20435	
2176.0	0.0	-0.00293	0.22192	
2177.0	0.0	0.02087	0.24591	
2178.0	0.0	0.04614	0.25781	
2179.0	0.0	0.07068	0.26239	
2180.0	0.0	0.09668	0.29315	
2181.0	0.0	0.12122	0.29791	
2182.0	0.0	0.14795	0.31091	
2183.0	0.0	0.17432	0.3327	
2184.0	0.0	0.20142	0.34991	
2185.0	0.0	0.22742	0.35815	
2186.0	0.0	0.25378	0.38287	
2187.0	0.0	0.27905	0.39697	
2188.0	0.0	0.30505	0.41803	
2189.0	0.0	0.32996	0.43341	
2190.0	0.0	0.35541	0.4541	
2191.0	0.0	0.38049	0.46564	
2192.0	0.0	0.40576	0.47479	
2193.0	0.0	0.43066	0.49475	
2194.0	0.0	0.45557	0.51379	
2195.0	0.0	0.47937	0.52643	
2196.0	0.0	0.505	0.54144	
2197.0	0.0	0.53082	0.55865	
2198.0	0.0	0.5592	0.56909	
2199.0	0.0	0.58667	0.58539	
2200.0	0.0	0.61487	0.60791	
2201.0	0.0	0.64398	0.62585	
2202.0	0.0	0.67255	0.64325	
2203.0	0.0	0.7002	0.65131	
2204.0	0.0	0.72693	0.67511	
2205.0	0.0	0.75366	0.68793	
2206.0	0.0	0.78168	0.70441	
2207.0	0.0	0.80933	0.71997	
2208.0	0.0	0.83643	0.7403	
2209.0	0.0	0.86353	0.74963	
2210.0	0.0	0.89062	0.76904	
2211.0	0.0	0.91809	0.77875	
2212.0	0.0	0.94849	0.79596	
2213.0	0.0	0.97723	0.8161	
2214.0	0.0	1.00635	0.83203	
2215.0	0.0	1.03271	0.84988	
2216.0	0.0	1.05908	0.87085	
2217.0	0.0	1.08325	0.88806	
2218.0	0.0	1.10596	0.90546	
2219.0	0.0	1.1272	0.92633	
2220.0	0.0	1.14917	0.93823	
2221.0	0.0	1.16821	0.95544	
2222.0	0.0	1.18726	0.97778	
2223.0	0.0	1.2041	0.9939	
2224.0	0.0	1.22168	1.01624	
2225.0	0.0	1.23633	1.03491	
2226.0	0.0	1.25098	1.05103	
2227.0	0.0	1.26343	1.06787	
2228.0	0.0	1.27661	1.08215	
2229.0	0.0	1.2876	1.09314	
2230.0	0.0	1.29968	1.10999	
2231.0	0.0	1.30811	1.12299	
2232.0	0.0	1.31836	1.13837	
2233.0	0.0	1.32861	1.15924	
2234.0	0.0	1.33887	1.17865	
2235.0	0.0	1.34692	1.19238	
2236.0	0.0	1.35681	1.20483	
2237.0	0.0	1.36487	1.21655	
2238.0	0.0	1.37256	1.22388	
2239.0	0.0	1.37842	1.23358	
2240.0	0.0	1.38574	1.23779	
2241.0	0.0	1.39197	1.24805	
2242.0	0.0	1.39783	1.26196	
2243.0	0.0	1.40222	1.27039	
2244.0	0.0	1.40662	1.28796	
2245.0	0.0	1.41138	1.2951	
2246.0	0.0	1.41687	1.31232	
2247.0	0.0	1.4209	1.31927	
2248.0	0.0	1.42529	1.32513	
2249.0	0.0	1.42767	1.34033	
2250.0	0.0	1.43005	1.34253	
2251.0	0.0	1.43298	1.35425	
2252.0	0.0	1.43628	1.35883	
2253.0	0.0	1.43701	1.36926	
2254.0	0.0	1.44067	1.38043	
2255.0	0.0	1.44214	1.38684	
2256.0	0.0	1.44507	1.39471	
2257.0	0.0	1.44507	1.39288	
2258.0	0.0	1.44653	1.40222	
2259.0	0.0	1.448	1.40625	
2260.0	0.0	1.4502	1.41229	
2261.0	0.0	1.45239	1.41522	
2262.0	0.0	1.45569	1.41779	
2263.0	0.0	1.45789	1.42163	
2264.0	0.0	1.45972	1.422	
2265.0	0.0	1.45935	1.42996	
2266.0	0.0	1.46191	1.43115	
2267.0	0.0	1.46155	1.42969	
2268.0	0.0	1.46191	1.43335	
2269.0	0.0	1.46155	1.4306	
2270.0	0.0	1.46191	1.4295	
2271.0	0.0	1.46301	1.42749	
2272.0	0.0	1.46484	1.42822	
2273.0	0.0	1.46521	1.4295	
2274.0	0.0	1.46722	1.43372	
2275.0	0.0	1.46814	1.43683	
2276.0	0.0	1.46887	1.43665	
2277.0	0.0	1.46924	1.43774	
2278.0	0.0	1.47034	1.44214	
2279.0	0.0	1.47162	1.44141	
2280.0	0.0	1.47217	1.44173	
2281.0	0.0	1.47217	1.44104	
2282.0	0.0	1.47217	1.44141	
2283.0	0.0	1.46997	1.43536	
2284.0	0.0	1.46887	1.43518	
2285.0	0.0	1.46558	1.42731	
2286.0	0.0	1.46191	1.42072	
2287.0	0.0	1.45605	1.41046	
2288.0	0.0	1.45111	1.40002	
2289.0	0.0	1.44507	1.38977	
2290.0	0.0	1.43921	1.37805	
2291.0	0.0	1.43188	1.3623	
2292.0	0.0	1.42438	1.35315	
2293.0	0.0	1.41577	1.3385	
2294.0	0.0	1.40625	1.31781	
2295.0	0.0	1.39417	1.30371	
2296.0	0.0	1.38281	1.29108	
2297.0	0.0	1.37073	1.26892	
2298.0	0.0	1.35864	1.25024	
2299.0	0.0	1.34509	1.23303	
2300.0	0.0	1.33411	1.21216	
2301.0	0.0	1.32312	1.19165	
2302.0	0.0	1.3147	1.16492	
2303.0	0.0	1.30774	1.14459	
2304.0	0.0	1.30334	1.1261	
2305.0	0.0	1.29858	1.1012	
2306.0	0.0	1.29272	1.07263	
2307.0	0.0	1.28467	1.047	
2308.0	0.0	1.27625	1.02319	
2309.0	0.0	1.26636	0.99719	
2310.0	0.0	1.25903	0.97778	
2311.0	0.0	1.25098	0.96039	
2312.0	0.0	1.24512	0.94775	
2313.0	0.0	1.23926	0.93384	
2314.0	0.0	1.23633	0.91772	
2315.0	0.0	1.23376	0.89758	
2316.0	0.0	1.23047	0.87561	
2317.0	0.0	1.22681	0.85217	
2318.0	0.0	1.22314	0.83093	
2319.0	0.0	1.21838	0.81006	
2320.0	0.0	1.21509	0.79102	
2321.0	0.0	1.21216	0.77014	
2322.0	0.0	1.21106	0.74963	
2323.0	0.0	1.21069	0.72913	
2324.0	0.0	1.21069	0.70605	
2325.0	0.0	1.21106	0.68848	
2326.0	0.0	1.21033	0.66595	
2327.0	0.0	1.20886	0.646	
2328.0	0.0	1.20923	0.63025	
2329.0	0.0	1.2063	0.61469	
2330.0	0.0	1.20428	0.59198	
2331.0	0.0	1.20337	0.57294	
2332.0	0.0	1.20337	0.56177	
2333.0	0.0	1.20209	0.53833	
2334.0	0.0	1.19971	0.52039	
2335.0	0.0	1.19678	0.50134	
2336.0	0.0	1.19531	0.49146	
2337.0	0.0	1.19458	0.46252	
2338.0	0.0	1.19476	0.46289	
2339.0	0.0	1.19495	0.44403	
2340.0	0.0	1.19604	0.41821	
2341.0	0.0	1.19861	0.40521	
2342.0	0.0	1.20117	0.39056	
2343.0	0.0	1.2063	0.38654	
2344.0	0.0	1.21289	0.35632	
2345.0	0.0	1.22095	0.35339	
2346.0	0.0	1.2312	0.3219	
2347.0	0.0	1.24072	0.31274	
2348.0	0.0	1.25171	0.29773	
2349.0	0.0	1.2605	0.28271	
2350.0	0.0	1.26892	0.27136	
2351.0	0.0	1.27661	0.24994	
2352.0	0.0	1.28467	0.23621	
2353.0	0.0	1.29272	0.22797	
2354.0	0.0	1.30078	0.21387	
2355.0	0.0	1.30811	0.20068	
2356.0	0.0	1.31543	0.18787	
2357.0	0.0	1.32202	0.17468	
2358.0	0.0	1.32788	0.1615	
2359.0	0.0	1.33301	0.14648	
2360.0	0.0	1.33795	0.12817	
2361.0	0.0	1.3429	0.11554	
2362.0	0.0	1.34802	0.09668	
2363.0	0.0	1.35278	0.08643	
2364.0	0.0	1.35901	0.06921	
2365.0	0.0	1.36487	0.05804	
2366.0	0.0	1.37183	0.04816	
2367.0	0.0	1.37842	0.03973	
2368.0	0.0	1.38611	0.03296	
2369.0	0.0	1.39307	0.02527	
2370.0	0.0	1.40112	0.02454	
2371.0	0.0	1.40552	0.01758	
2372.0	0.0	1.41174	0.01538	
2373.0	0.0	1.4165	0.00824	
2374.0	0.0	1.42328	0.00256	
2375.0	0.0	1.42676	0.00897	
2376.0	0.0	1.43152	-0.00073	
2377.0	0.0	1.43445	0.00751	
2378.0	0.0	1.43848	-0.00467	
2379.0	0.0	1.44104	-0.00421	
2380.0	0.0	1.44507	-0.01392	
2381.0	0.0	1.448	-0.01428	
2382.0	0.0	1.45093	-0.00751	
2383.0	0.0	1.45239	-0.01392	
2384.0	0.0	1.45496	-0.00513	
2385.0	0.0	1.45532	-0.00952	
2386.0	0.0	1.45752	-0.00916	
2387.0	0.0	1.45825	-0.00897	
2388.0	0.0	1.46118	-0.01556	
2389.0	0.0	1.46265	-0.0119	
2390.0	0.0	1.46484	-0.02673	
2391.0	0.0	1.46484	-0.03149	
2392.0	0.0	1.46741	-0.03415	
2393.0	0.0	1.46777	-0.04468	
2394.0	0.0	1.46869	-0.04926	
2395.0	0.0	1.46924	-0.04688	
2396.0	0.0	1.47034	-0.06573	
2397.0	0.0	1.4707	-0.06812	
2398.0	0.0	1.47107	-0.07553	
2399.0	0.0	1.47144	-0.08276	
2400.0	0.0	1.4729	-0.08862	
2401.0	0.0	1.4729	-0.09	
2402.0	0.0	1.47473	-0.09668	
2403.0	0.0	1.47583	-0.09906	
2404.0	0.0	1.47656	-0.11554	
2405.0	0.0	1.47729	-0.12964	
2406.0	0.0	1.47803	-0.14301	
2407.0	0.0	1.48022	-0.15527	
2408.0	0.0	1.48169	-0.16315	
2409.0	0.0	1.48169	-0.17487	
2410.0	0.0	1.48315	-0.18054	
2411.0	0.0	1.48315	-0.18146	
2412.0	0.0	1.48462	-0.19336	
2413.0	0.0	1.48499	-0.19666	
2414.0	0.0	1.48608	-0.20306	
2415.0	0.0	1.48718	-0.20599	
2416.0	0.0	1.48865	-0.20691	
2417.0	0.0	1.48828	-0.20325	
2418.0	0.0	1.48901	-0.19922	
2419.0	0.0	1.48901	-0.19922	
2420.0	0.0	1.48975	-0.19006	
2421.0	0.0	1.48901	-0.18567	
2422.0	0.0	1.48938	-0.18365	
2423.0	0.0	1.48828	-0.17834	
2424.0	0.0	1.48901	-0.17432	
2425.0	0.0	1.48865	-0.17139	
2426.0	0.0	1.48828	-0.16425	
2427.0	0.0	1.48846	-0.1582	
2428.0	0.0	1.48901	-0.15015	
2429.0	0.0	1.48828	-0.14191	
2430.0	0.0	1.48846	-0.13257	
2431.0	0.0	1.48682	-0.12524	
2432.0	0.0	1.48682	-0.11957	
2433.0	0.0	1.48608	-0.11169	
2434.0	0.0	1.48572	-0.10529	
2435.0	0.0	1.48535	-0.09705	
2436.0	0.0	1.48462	-0.08661	
2437.0	0.0	1.48315	-0.07361	
2438.0	0.0	1.48242	-0.05969	
2439.0	0.0	1.48096	-0.05365	
2440.0	0.0	1.48096	-0.04083	
2441.0	0.0	1.48169	-0.02948	
2442.0	0.0	1.48315	-0.01611	
2443.0	0.0	1.48315	-0.00842	
2444.0	0.0	1.48389	0.00183	
2445.0	0.0	1.4837	0.00732	
2446.0	0.0	1.48462	0.01978	
2447.0	0.0	1.48389	0.02856	
2448.0	0.0	1.48462	0.03548	
2449.0	0.0	1.48389	0.04797	
2450.0	0.0	1.48425	0.05786	
2451.0	0.0	1.48389	0.08167	
2452.0	0.0	1.48315	0.09265	
2453.0	0.0	1.48279	0.10071	
2454.0	0.0	1.48242	0.10822	
2455.0	0.0	1.48279	0.12158	
2456.0	0.0	1.48352	0.12067	
2457.0	0.0	1.48206	0.12653	
2458.0	0.0	1.48242	0.13641	
2459.0	0.0	1.48169	0.13751	
2460.0	0.0	1.48279	0.14502	
2461.0	0.0	1.48206	0.15527	
2462.0	0.0	1.48242	0.14941	
2463.0	0.0	1.48169	0.15619	
2464.0	0.0	1.48242	0.16113	
2465.0	0.0	1.48096	0.16296	
2466.0	0.0	1.48169	0.16003	
2467.0	0.0	1.48169	0.16516	
2468.0	0.0	1.48242	0.15765	
2469.0	0.0	1.48169	0.15619	
2470.0	0.0	1.48206	0.15308	
2471.0	0.0	1.48242	0.15216	
2472.0	0.0	1.48389	0.16205	
2473.0	0.0	1.48242	0.1582	
2474.0	0.0	1.48242	0.15491	
2475.0	0.0	1.48279	0.14685	
2476.0	0.0	1.48242	0.14095	
2477.0	0.0	1.48315	0.13422	
2478.0	0.0	1.48389	0.13605	
2479.0	0.0	1.48315	0.12415	
2480.0	0.0	1.48389	0.12341	
2481.0	0.0	1.48389	0.11902	
2482.0	0.0	1.48315	0.12231	
2483.0	0.0	1.48315	0.11957	
2484.0	0.0	1.48315	0.10693	
2485.0	0.0	1.48206	0.10986	
2486.0	0.0	1.48242	0.10767	
2487.0	0.0	1.48206	0.11316	
2488.0	0.0	1.48242	0.10583	
2489.0	0.0	1.48206	0.10107	
2490.0	0.0	1.48315	0.10254	
2491.0	0.0	1.48242	0.10181	
2492.0	0.0	1.48315	0.10858	
2493.0	0.0	1.48169	0.09283	
2494.0	0.0	1.48077	0.09082	
2495.0	0.0	1.47949	0.08862	
2496.0	0.0	1.47913	0.07434	
2497.0	0.0	1.47949	0.06445	
2498.0	0.0	1.47986	0.04376	
2499.0	0.0	1.48132	0.02435	
2500.0	0.0	1.48315	0.00677	
2501.0	0.0	1.48462	-0.01611	
2502.0	0.0	1.48535	-0.03625	
2503.0	0.0	1.48462	-0.06702	
2504.0	0.0	1.48535	-0.0943	
2505.0	0.0	1.48535	-0.12158	
2506.0	0.0	1.48627	-0.15399	
2507.0	0.0	1.48535	-0.18091	
2508.0	0.0	1.48718	-0.20901	
2509.0	0.0	1.48755	-0.23822	
2510.0	0.0	1.48901	-0.2644	
2511.0	0.0	1.48901	-0.28986	
2512.0	0.0	1.49048	-0.31476	
2513.0	0.0	1.49048	-0.33453	
2514.0	0.0	1.49048	-0.35797	
2515.0	0.0	1.48828	-0.38379	
2516.0	0.0	1.48352	-0.4151	
2517.0	0.0	1.47803	-0.44348	
2518.0	0.0	1.47363	-0.47562	
2519.0	0.0	1.4696	-0.50189	
2520.0	0.0	1.46558	-0.53339	
2521.0	0.0	1.46338	-0.55756	
2522.0	0.0	1.45972	-0.58008	
2523.0	0.0	1.45752	-0.61011	
2524.0	0.0	1.45386	-0.6329	
2525.0	0.0	1.44873	-0.65973	
2526.0	0.0	1.44324	-0.68628	
2527.0	0.0	1.43774	-0.7132	
2528.0	0.0	1.43042	-0.73499	
2529.0	0.0	1.42383	-0.7619	
2530.0	0.0	1.41797	-0.77875	
2531.0	0.0	1.41064	-0.79962	
2532.0	0.0	1.40295	-0.815	
2533.0	0.0	1.3938	-0.83093	
2534.0	0.0	1.38391	-0.85217	
2535.0	0.0	1.37036	-0.8746	
2536.0	0.0	1.35645	-0.89703	
2537.0	0.0	1.3418	-0.91992	
2538.0	0.0	1.32715	-0.94345	
2539.0	0.0	1.31177	-0.95984	
2540.0	0.0	1.29675	-0.98566	
2541.0	0.0	1.28137	-1.00882	
2542.0	0.0	1.26636	-1.02924	
2543.0	0.0	1.24878	-1.05185	
2544.0	0.0	1.23267	-1.07332	
2545.0	0.0	1.21674	-1.09177	
2546.0	0.0	1.20117	-1.11484	
2547.0	0.0	1.18579	-1.13196	
2548.0	0.0	1.17114	-1.15063	
2549.0	0.0	1.15686	-1.16904	
2550.0	0.0	1.14294	-1.18643	
2551.0	0.0	1.13049	-1.20337	
2552.0	0.0	1.11896	-1.21907	
2553.0	0.0	1.10852	-1.23395	
2554.0	0.0	1.09937	-1.24713	
2555.0	0.0	1.08984	-1.26041	
2556.0	0.0	1.07996	-1.27368	
2557.0	0.0	1.07117	-1.28682	
2558.0	0.0	1.06311	-1.29419	
2559.0	0.0	1.05615	-1.31049	
2560.0	0.0	1.05029	-1.31781	
2561.0	0.0	1.04407	-1.32568	
2562.0	0.0	1.03784	-1.33951	
2563.0	0.0	1.02979	-1.34033	
2564.0	0.0	1.02338	-1.35031	
2565.0	0.0	1.01733	-1.3515	
2566.0	0.0	1.01294	-1.35251	
2567.0	0.0	1.00854	-1.35324	
2568.0	0.0	1.00488	-1.35928	
2569.0	0.0	1.00159	-1.35864	
2570.0	0.0	0.99976	-1.36098	
2571.0	0.0	0.99756	-1.36661	
2572.0	0.0	0.99536	-1.37105	
2573.0	0.0	0.99243	-1.37242	
2574.0	0.0	0.9895	-1.3764	
2575.0	0.0	0.98657	-1.38098	
2576.0	0.0	0.98291	-1.37801	
2577.0	0.0	0.97925	-1.38272	
2578.0	0.0	0.9765	-1.38281	
2579.0	0.0	0.97449	-1.38812	
2580.0	0.0	0.97266	-1.38931	
2581.0	0.0	0.97119	-1.39041	
2582.0	0.0	0.96899	-1.39334	
2583.0	0.0	0.96753	-1.40021	
2584.0	0.0	0.9657	-1.40419	
2585.0	0.0	0.96533	-1.40575	
2586.0	0.0	0.96515	-1.41046	
2587.0	0.0	0.9657	-1.40886	
2588.0	0.0	0.96753	-1.41335	
2589.0	0.0	0.96899	-1.42506	
2590.0	0.0	0.97119	-1.42841	
2591.0	0.0	0.97266	-1.42749	
2592.0	0.0	0.97302	-1.42108	
2593.0	0.0	0.97339	-1.41087	
2594.0	0.0	0.97485	-1.40213	
2595.0	0.0	0.97559	-1.39723	
2596.0	0.0	0.97778	-1.38116	
2597.0	0.0	0.98035	-1.35768	
2598.0	0.0	0.98383	-1.34468	
2599.0	0.0	0.98877	-1.32797	
2600.0	0.0	0.995	-1.3114	
2601.0	0.0	1.00049	-1.29446	
2602.0	0.0	1.00781	-1.27904	
2603.0	0.0	1.01404	-1.26453	
2604.0	0.0	1.02026	-1.25006	
2605.0	0.0	1.02502	-1.24155	
2606.0	0.0	1.03015	-1.22379	
2607.0	0.0	1.03564	-1.21252	
2608.0	0.0	1.04077	-1.20621	
2609.0	0.0	1.0459	-1.19701	
2610.0	0.0	1.05066	-1.19183	
2611.0	0.0	1.05322	-1.18913	
2612.0	0.0	1.05505	-1.18936	
2613.0	0.0	1.05542	-1.18945	
2614.0	0.0	1.05652	-1.19815	
2615.0	0.0	1.05359	-1.18945	
2616.0	0.0	1.05139	-1.18744	
2617.0	0.0	1.04773	-1.18245	
2618.0	0.0	1.04407	-1.17471	
2619.0	0.0	1.03748	-1.1651	
2620.0	0.0	1.03235	-1.16373	
2621.0	0.0	1.02631	-1.15453	
2622.0	0.0	1.02026	-1.14844	
2623.0	0.0	1.01459	-1.14001	
2624.0	0.0	1.01001	-1.13063	
2625.0	0.0	1.00562	-1.12042	
2626.0	0.0	1.00177	-1.10815	
2627.0	0.0	0.99683	-1.09639	
2628.0	0.0	0.99225	-1.08907	
2629.0	0.0	0.98529	-1.08696	
2630.0	0.0	0.97925	-1.0752	
2631.0	0.0	0.97046	-1.07135	
2632.0	0.0	0.95984	-1.06691	
2633.0	0.0	0.94922	-1.06567	
2634.0	0.0	0.9397	-1.05894	
2635.0	0.0	0.92944	-1.05469	
2636.0	0.0	0.91992	-1.05286	
2637.0	0.0	0.91095	-1.04837	
2638.0	0.0	0.90381	-1.04141	
2639.0	0.0	0.89685	-1.03601	
2640.0	0.0	0.89209	-1.02576	
2641.0	0.0	0.88623	-1.0166	
2642.0	0.0	0.88147	-1.00964	
2643.0	0.0	0.87524	-1.00095	
2644.0	0.0	0.87085	-0.99564	
2645.0	0.0	0.86609	-0.9873	
2646.0	0.0	0.86133	-0.98323	
2647.0	0.0	0.8573	-0.97925	
2648.0	0.0	0.85181	-0.97971	
2649.0	0.0	0.84595	-0.97833	
2650.0	0.0	0.84045	-0.97879	
2651.0	0.0	0.83459	-0.97458	
2652.0	0.0	0.8291	-0.97623	
2653.0	0.0	0.82434	-0.97522	
2654.0	0.0	0.81885	-0.98071	
2655.0	0.0	0.81482	-0.98364	
2656.0	0.0	0.81006	-0.98895	
2657.0	0.0	0.80566	-0.99866	
2658.0	0.0	0.802	-1.00909	
2659.0	0.0	0.79651	-1.01953	
2660.0	0.0	0.79211	-1.03784	
2661.0	0.0	0.78882	-1.04507	
2662.0	0.0	0.78772	-1.05469	
2663.0	0.0	0.78625	-1.06906	
2664.0	0.0	0.78406	-1.0708	
2665.0	0.0	0.78113	-1.07922	
2666.0	0.0	0.77728	-1.08353	
2667.0	0.0	0.77344	-1.0854	
2668.0	0.0	0.76904	-1.08394	
2669.0	0.0	0.76685	-1.08224	
2670.0	0.0	0.76538	-1.07785	
2671.0	0.0	0.76501	-1.07501	
2672.0	0.0	0.76685	-1.073	
2673.0	0.0	0.76959	-1.06604	
2674.0	0.0	0.77362	-1.06055	
2675.0	0.0	0.77875	-1.05872	
2676.0	0.0	0.78259	-1.05661	
2677.0	0.0	0.78625	-1.05629	
2678.0	0.0	0.79102	-1.05753	
2679.0	0.0	0.79504	-1.06041	
2680.0	0.0	0.79816	-1.06105	
2681.0	0.0	0.80127	-1.05661	
2682.0	0.0	0.80273	-1.0513	
2683.0	0.0	0.8042	-1.04736	
2684.0	0.0	0.80566	-1.04297	
2685.0	0.0	0.80713	-1.04077	
2686.0	0.0	0.80713	-1.03546	
2687.0	0.0	0.8064	-1.03748	
2688.0	0.0	0.80365	-1.03198	
2689.0	0.0	0.79834	-1.03033	
2690.0	0.0	0.79266	-1.02905	
2691.0	0.0	0.78625	-1.03088	
2692.0	0.0	0.77747	-1.03629	
2693.0	0.0	0.76904	-1.03802	
2694.0	0.0	0.76025	-1.04585	
2695.0	0.0	0.7522	-1.04718	
2696.0	0.0	0.74341	-1.0556	
2697.0	0.0	0.73425	-1.06036	
2698.0	0.0	0.7262	-1.05995	
2699.0	0.0	0.71924	-1.06192	
2700.0	0.0	0.71301	-1.06604	
2701.0	0.0	0.70532	-1.0713	
2702.0	0.0	0.6969	-1.07153	
2703.0	0.0	0.68811	-1.07968	
2704.0	0.0	0.67749	-1.08508	
2705.0	0.0	0.66687	-1.09584	
2706.0	0.0	0.65588	-1.10504	
2707.0	0.0	0.64453	-1.11603	
2708.0	0.0	0.63281	-1.13104	
2709.0	0.0	0.62109	-1.15205	
2710.0	0.0	0.60864	-1.17902	
2711.0	0.0	0.59729	-1.1993	
2712.0	0.0	0.58521	-1.2182	
2713.0	0.0	0.57275	-1.2377	
2714.0	0.0	0.55957	-1.25771	
2715.0	0.0	0.54492	-1.26979	
2716.0	0.0	0.52808	-1.28568	
2717.0	0.0	0.5094	-1.29341	
2718.0	0.0	0.49036	-1.29199	
2719.0	0.0	0.4682	-1.2821	
2720.0	0.0	0.44458	-1.26114	
2721.0	0.0	0.41968	-1.23921	
2722.0	0.0	0.39404	-1.20808	
2723.0	0.0	0.36768	-1.17133	
2724.0	0.0	0.34131	-1.1293	
2725.0	0.0	0.31458	-1.07771	
2726.0	0.0	0.29077	-1.01678	
2727.0	0.0	0.26733	-0.94528	
2728.0	0.0	0.24573	-0.87534	
2729.0	0.0	0.22705	-0.79147	
2730.0	0.0	0.21167	-0.70395	
2731.0	0.0	0.19958	-0.61093	
2732.0	0.0	0.19281	-0.51343	
2733.0	0.0	0.1886	-0.4129	
2734.0	0.0	0.1875	-0.31732	
2735.0	0.0	0.1875	-0.20306	
2736.0	0.0	0.1886	-0.10474	
2737.0	0.0	0.19006	-0.00879	
2738.0	0.0	0.19281	0.0835	
2739.0	0.0	0.19757	0.17175	
2740.0	0.0	0.20618	0.23932	
2741.0	0.0	0.21973	0.31439	
2742.0	0.0	0.23877	0.37866	
2743.0	0.0	0.26331	0.44147	
2744.0	0.0	0.29297	0.51013	
2745.0	0.0	0.32739	0.56067	
2746.0	0.0	0.36511	0.59839	
2747.0	0.0	0.40649	0.64233	
2748.0	0.0	0.44934	0.67584	
2749.0	0.0	0.49292	0.6936	
2750.0	0.0	0.5376	0.70862	
2751.0	0.0	0.58246	0.71851	
2752.0	0.0	0.62439	0.71173	
2753.0	0.0	0.66504	0.71191	
2754.0	0.0	0.70312	0.71283	
2755.0	0.0	0.73828	0.70239	
2756.0	0.0	0.77051	0.68591	
2757.0	0.0	0.7998	0.68079	
2758.0	0.0	0.82617	0.66962	
2759.0	0.0	0.84961	0.66156	
2760.0	0.0	0.87085	0.66174	
2761.0	0.0	0.8877	0.66357	
2762.0	0.0	0.90308	0.67712	
2763.0	0.0	0.9137	0.6958	
2764.0	0.0	0.92139	0.71338	
2765.0	0.0	0.92578	0.7359	
2766.0	0.0	0.92542	0.74634	
2767.0	0.0	0.92175	0.75861	
2768.0	0.0	0.91644	0.76813	
2769.0	0.0	0.90985	0.78021	
2770.0	0.0	0.90308	0.79102	
2771.0	0.0	0.89648	0.80878	
2772.0	0.0	0.88916	0.8302	
2773.0	0.0	0.88367	0.84595	
2774.0	0.0	0.87689	0.87854	
2775.0	0.0	0.86957	0.9137	
2776.0	0.0	0.86169	0.94153	
2777.0	0.0	0.85181	0.97211	
2778.0	0.0	0.841	1.00049	
2779.0	0.0	0.8302	1.03674	
2780.0	0.0	0.81848	1.0578	
2781.0	0.0	0.8075	1.07831	
2782.0	0.0	0.79541	1.10175	
2783.0	0.0	0.78442	1.1217	
2784.0	0.0	0.77197	1.13525	
2785.0	0.0	0.76025	1.14844	
2786.0	0.0	0.74908	1.14771	
2787.0	0.0	0.73718	1.138	
2788.0	0.0	0.72455	1.11475	
2789.0	0.0	0.71082	1.09131	
2790.0	0.0	0.69745	1.047	
2791.0	0.0	0.68372	1.00745	
2792.0	0.0	0.66943	0.96698	
2793.0	0.0	0.65588	0.94336	
2794.0	0.0	0.6416	0.90894	
2795.0	0.0	0.62695	0.87817	
2796.0	0.0	0.6123	0.84668	
2797.0	0.0	0.59729	0.8205	
2798.0	0.0	0.58337	0.78699	
2799.0	0.0	0.57202	0.73993	
2800.0	0.0	0.56396	0.69653	
2801.0	0.0	0.55865	0.63922	
2802.0	0.0	0.55481	0.5896	
2803.0	0.0	0.55261	0.51654	
2804.0	0.0	0.5506	0.44604	
2805.0	0.0	0.54675	0.37756	
2806.0	0.0	0.54346	0.29865	
2807.0	0.0	0.53979	0.22595	
2808.0	0.0	0.53412	0.15253	
2809.0	0.0	0.52991	0.08917	
2810.0	0.0	0.52515	0.0282	
2811.0	0.0	0.52148	-0.03223	
2812.0	0.0	0.51782	-0.07855	
2813.0	0.0	0.51489	-0.10364	
2814.0	0.0	0.51196	-0.13586	
2815.0	0.0	0.51086	-0.17505	
2816.0	0.0	0.51031	-0.20673	
2817.0	0.0	0.51086	-0.22998	
2818.0	0.0	0.51306	-0.24719	
2819.0	0.0	0.51636	-0.26468	
2820.0	0.0	0.52075	-0.27759	
2821.0	0.0	0.52625	-0.28619	
2822.0	0.0	0.53375	-0.28381	
2823.0	0.0	0.54163	-0.29095	
2824.0	0.0	0.54895	-0.2818	
2825.0	0.0	0.55481	-0.26935	
2826.0	0.0	0.55811	-0.26276	
2827.0	0.0	0.55957	-0.24536	
2828.0	0.0	0.55701	-0.2244	
2829.0	0.0	0.55371	-0.19208	
2830.0	0.0	0.54858	-0.17249	
2831.0	0.0	0.54272	-0.14008	
2832.0	0.0	0.5343	-0.10492	
2833.0	0.0	0.52551	-0.06207	
2834.0	0.0	0.51416	-0.01208	
2835.0	0.0	0.50317	0.04047	
2836.0	0.0	0.49384	0.10217	
2837.0	0.0	0.48669	0.15852	
2838.0	0.0	0.48157	0.21973	
2839.0	0.0	0.47754	0.28491	
2840.0	0.0	0.47314	0.33673	
2841.0	0.0	0.46838	0.40338	
2842.0	0.0	0.46252	0.45483	
2843.0	0.0	0.45593	0.51691	
2844.0	0.0	0.44604	0.55829	
2845.0	0.0	0.43506	0.60315	
2846.0	0.0	0.42297	0.63336	
2847.0	0.0	0.40906	0.66467	
2848.0	0.0	0.39331	0.69173	
2849.0	0.0	0.37701	0.71393	
2850.0	0.0	0.35889	0.72748	
2851.0	0.0	0.33911	0.7467	
2852.0	0.0	0.31842	0.75421	
2853.0	0.0	0.29846	0.75458	
2854.0	0.0	0.27869	0.75604	
2855.0	0.0	0.25854	0.76245	
2856.0	0.0	0.23914	0.75732	
2857.0	0.0	0.22101	0.75027	
2858.0	0.0	0.20361	0.75751	
2859.0	0.0	0.1875	0.74634	
2860.0	0.0	0.17157	0.74432	
2861.0	0.0	0.1571	0.74432	
2862.0	0.0	0.14246	0.73444	
2863.0	0.0	0.12836	0.71448	
2864.0	0.0	0.11389	0.7099	
2865.0	0.0	0.09943	0.69672	
2866.0	0.0	0.08459	0.67548	
2867.0	0.0	0.06921	0.63776	
2868.0	0.0	0.05566	0.61102	
2869.0	0.0	0.04541	0.57074	
2870.0	0.0	0.03552	0.52478	
2871.0	0.0	0.02637	0.47516	
2872.0	0.0	0.01611	0.42334	
2873.0	0.0	0.00531	0.37573	
2874.0	0.0	-0.00476	0.31641	
2875.0	0.0	-0.01172	0.26807	
2876.0	0.0	-0.01685	0.22028	
2877.0	0.0	-0.02032	0.17908	
2878.0	0.0	-0.02161	0.13	
2879.0	0.0	-0.02051	0.08258	
2880.0	0.0	-0.01648	0.02673	
2881.0	0.0	-0.00879	-0.03131	
2882.0	0.0	-0.00128	-0.08002	
2883.0	0.0	0.00696	-0.14163	
2884.0	0.0	0.01538	-0.20636	
2885.0	0.0	0.0249	-0.27228	
2886.0	0.0	0.03479	-0.33087	
2887.0	0.0	0.04614	-0.38947	
2888.0	0.0	0.05731	-0.4314	
2889.0	0.0	0.07159	-0.4704	
2890.0	0.0	0.08679	-0.50739	
2891.0	0.0	0.104	-0.54181	
2892.0	0.0	0.12195	-0.57129	
2893.0	0.0	0.14209	-0.59821	
2894.0	0.0	0.16187	-0.62494	
2895.0	0.0	0.18311	-0.65295	
2896.0	0.0	0.20453	-0.66769	
2897.0	0.0	0.22632	-0.68445	
2898.0	0.0	0.24792	-0.69855	
2899.0	0.0	0.27026	-0.71375	
2900.0	0.0	0.2915	-0.72089	
2901.0	0.0	0.31366	-0.73132	
2902.0	0.0	0.33252	-0.73517	
2903.0	0.0	0.3501	-0.74048	
2904.0	0.0	0.36603	-0.75229	
2905.0	0.0	0.38086	-0.75897	
2906.0	0.0	0.39386	-0.7619	
2907.0	0.0	0.40649	-0.76813	
2908.0	0.0	0.41821	-0.77463	
2909.0	0.0	0.4292	-0.77486	
2910.0	0.0	0.43762	-0.7782	
2911.0	0.0	0.44385	-0.77893	
2912.0	0.0	0.44458	-0.78131	
2913.0	0.0	0.44055	-0.78021	
2914.0	0.0	0.42957	-0.77765	
2915.0	0.0	0.41418	-0.77728	
2916.0	0.0	0.39349	-0.77014	
2917.0	0.0	0.36932	-0.76154	
2918.0	0.0	0.34314	-0.75728	
2919.0	0.0	0.31512	-0.74615	
2920.0	0.0	0.28601	-0.7381	
2921.0	0.0	0.25708	-0.72766	
2922.0	0.0	0.22742	-0.7251	
2923.0	0.0	0.19922	-0.71301	
2924.0	0.0	0.17102	-0.71448	
2925.0	0.0	0.14502	-0.70276	
2926.0	0.0	0.11938	-0.70331	
2927.0	0.0	0.0965	-0.70825	
2928.0	0.0	0.07507	-0.7088	
2929.0	0.0	0.0553	-0.70999	
2930.0	0.0	0.03735	-0.71448	
2931.0	0.0	0.02014	-0.72473	
2932.0	0.0	0.00366	-0.71979	
2933.0	0.0	-0.01172	-0.72839	
2934.0	0.0	-0.02692	-0.72052	
2935.0	0.0	-0.03992	-0.71901	
2936.0	0.0	-0.05255	-0.70587	
2937.0	0.0	-0.06226	-0.70139	
2938.0	0.0	-0.07031	-0.68756	
2939.0	0.0	-0.07654	-0.66541	
2940.0	0.0	-0.08185	-0.6568	
2941.0	0.0	-0.08533	-0.6351	
2942.0	0.0	-0.08679	-0.60864	
2943.0	0.0	-0.08606	-0.57156	
2944.0	0.0	-0.08093	-0.52771	
2945.0	0.0	-0.06958	-0.48779	
2946.0	0.0	-0.05548	-0.43954	
2947.0	0.0	-0.04047	-0.38361	
2948.0	0.0	-0.0271	-0.33527	
2949.0	0.0	-0.01483	-0.29132	
2950.0	0.0	-0.00293	-0.25488	
2951.0	0.0	0.00989	-0.22668	
2952.0	0.0	0.02316	-0.20187	
2953.0	0.0	0.03772	-0.17871	
2954.0	0.0	0.05328	-0.16205	
2955.0	0.0	0.06885	-0.14648	
2956.0	0.0	0.08459	-0.12946	
2957.0	0.0	0.09796	-0.1203	
2958.0	0.0	0.10748	-0.10657	
2959.0	0.0	0.11481	-0.09448	
2960.0	0.0	0.11957	-0.08826	
2961.0	0.0	0.12305	-0.07159	
2962.0	0.0	0.12579	-0.05402	
2963.0	0.0	0.12964	-0.03699	
2964.0	0.0	0.13202	-0.02142	
2965.0	0.0	0.13513	-0.0141	
2966.0	0.0	0.13623	0.00641	
2967.0	0.0	0.13806	0.01465	
2968.0	0.0	0.13843	0.02454	
2969.0	0.0	0.13879	0.03543	
2970.0	0.0	0.13733	0.03406	
2971.0	0.0	0.13568	0.05109	
2972.0	0.0	0.13293	0.06299	
2973.0	0.0	0.12927	0.06555	
2974.0	0.0	0.12396	0.08276	
2975.0	0.0	0.11902	0.08203	
2976.0	0.0	0.11261	0.08844	
2977.0	0.0	0.1062	0.10199	
2978.0	0.0	0.09897	0.09943	
2979.0	0.0	0.09302	0.10309	
2980.0	0.0	0.08716	0.09686	
2981.0	0.0	0.08148	0.11133	
2982.0	0.0	0.07581	0.11169	
2983.0	0.0	0.07251	0.11096	
2984.0	0.0	0.06976	0.11279	
2985.0	0.0	0.06958	0.11792	
2986.0	0.0	0.06921	0.11005	
2987.0	0.0	0.07031	0.11746	
2988.0	0.0	0.07104	0.12122	
2989.0	0.0	0.07178	0.1214	
2990.0	0.0	0.07178	0.12158	
2991.0	0.0	0.07104	0.12305	
2992.0	0.0	0.0683	0.13348	
2993.0	0.0	0.06573	0.13824	
2994.0	0.0	0.06116	0.1452	
2995.0	0.0	0.05713	0.1377	
2996.0	0.0	0.05237	0.14575	
2997.0	0.0	0.04797	0.15198	
2998.0	0.0	0.04248	0.15234	
2999.0	0.0	0.03809	0.15564	
3000.0	0.0	0.03314	0.14905	
3001.0	0.0	0.02893	0.14465	
3002.0	0.0	0.02435	0.15344	
3003.0	0.0	0.02087	0.16296	
3004.0	0.0	0.01758	0.15161	
3005.0	0.0	0.01447	0.16736	
3006.0	0.0	0.01062	0.16901	
3007.0	0.0	0.00732	0.16406	
3008.0	0.0	0.0033	0.17029	
3009.0	0.0	-0.00055	0.1702	
3010.0	0.0	-0.00513	0.16388	
3011.0	0.0	-0.00879	0.16736	
3012.0	0.0	-0.01263	0.17175	
3013.0	0.0	-0.01575	0.16956	
3014.0	0.0	-0.01904	0.17432	
3015.0	0.0	-0.02179	0.16168	
3016.0	0.0	-0.0238	0.16882	
3017.0	0.0	-0.02417	0.16992	
3018.0	0.0	-0.02417	0.17761	
3019.0	0.0	-0.0238	0.17999	
3020.0	0.0	-0.02197	0.16736	
3021.0	0.0	-0.02014	0.17963	
3022.0	0.0	-0.01886	0.16718	
3023.0	0.0	-0.01794	0.1734	
3024.0	0.0	-0.01923	0.16589	
3025.0	0.0	-0.02032	0.17587	
3026.0	0.0	-0.02271	0.17084	
3027.0	0.0	-0.02454	0.17761	
3028.0	0.0	-0.02417	0.17908	
3029.0	0.0	-0.02124	0.1702	
3030.0	0.0	-0.01941	0.1767	
3031.0	0.0	-0.01849	0.17047	
3032.0	0.0	-0.02234	0.17871	
3033.0	0.0	-0.02637	0.1767	
3034.0	0.0	-0.03168	0.1615	
3035.0	0.0	-0.03571	0.15875	
3036.0	0.0	-0.03772	0.14923	
3037.0	0.0	-0.03772	0.16095	
3038.0	0.0	-0.03625	0.15088	
3039.0	0.0	-0.03223	0.16974	
3040.0	0.0	-0.02985	0.16608	
3041.0	0.0	-0.02692	0.17432	
3042.0	0.0	-0.02637	0.18127	
3043.0	0.0	-0.02673	0.19098	
3044.0	0.0	-0.02673	0.20032	
3045.0	0.0	-0.02545	0.21625	
3046.0	0.0	-0.02399	0.22614	
3047.0	0.0	-0.02142	0.22888	
3048.0	0.0	-0.01978	0.22668	
3049.0	0.0	-0.01685	0.24518	
3050.0	0.0	-0.01392	0.24609	
3051.0	0.0	-0.01025	0.24518	
3052.0	0.0	-0.00732	0.2309	
3053.0	0.0	-0.00293	0.23401	
3054.0	0.0	0.00128	0.23236	
3055.0	0.0	0.00586	0.23053	
3056.0	0.0	0.01007	0.22906	
3057.0	0.0	0.01392	0.22705	
3058.0	0.0	0.01611	0.22412	
3059.0	0.0	0.01923	0.21497	
3060.0	0.0	0.02051	0.20874	
3061.0	0.0	0.02124	0.20618	
3062.0	0.0	0.02161	0.20215	
3063.0	0.0	0.02161	0.19904	
3064.0	0.0	0.02106	0.18896	
3065.0	0.0	0.02161	0.19592	
3066.0	0.0	0.02325	0.19189	
3067.0	0.0	0.02783	0.18906	
3068.0	0.0	0.03186	0.18164	
3069.0	0.0	0.03864	0.1767	
3070.0	0.0	0.04468	0.1615	
3071.0	0.0	0.05182	0.16351	
3072.0	0.0	0.05804	0.15948	
3073.0	0.0	0.065	0.1571	
3074.0	0.0	0.07178	0.15417	
3075.0	0.0	0.07764	0.15491	
3076.0	0.0	0.08167	0.15582	
3077.0	0.0	0.08661	0.16058	
3078.0	0.0	0.09009	0.16132	
3079.0	0.0	0.09375	0.16608	
3080.0	0.0	0.09631	0.16388	
3081.0	0.0	0.09924	0.17468	
3082.0	0.0	0.10034	0.18018	
3083.0	0.0	0.10162	0.19043	
3084.0	0.0	0.10199	0.19098	
3085.0	0.0	0.10309	0.19391	
3086.0	0.0	0.10291	0.19336	
3087.0	0.0	0.10419	0.20764	
3088.0	0.0	0.10455	0.21606	
3089.0	0.0	0.10547	0.22083	
3090.0	0.0	0.1062	0.22229	
3091.0	0.0	0.10712	0.22595	
3092.0	0.0	0.10767	0.22156	
3093.0	0.0	0.10748	0.21936	
3094.0	0.0	0.10547	0.20911	
3095.0	0.0	0.10364	0.21094	
3096.0	0.0	0.09998	0.20728	
3097.0	0.0	0.09668	0.21313	
3098.0	0.0	0.09247	0.21149	
3099.0	0.0	0.08936	0.21057	
3100.0	0.0	0.08606	0.2135	
3101.0	0.0	0.0835	0.2038	
3102.0	0.0	0.08002	0.19308	
3103.0	0.0	0.07562	0.20398	
3104.0	0.0	0.06995	0.1972	
3105.0	0.0	0.06555	0.19432	
3106.0	0.0	0.05988	0.19153	
3107.0	0.0	0.05841	0.19336	
3108.0	0.0	0.05933	0.19373	
3109.0	0.0	0.06226	0.19803	
3110.0	0.0	0.06409	0.19647	
3111.0	0.0	0.06519	0.1853	
3112.0	0.0	0.06372	0.17706	
3113.0	0.0	0.06335	0.16388	
3114.0	0.0	0.06262	0.17102	
3115.0	0.0	0.06592	0.16205	
3116.0	0.0	0.07031	0.15729	
3117.0	0.0	0.07855	0.14868	
3118.0	0.0	0.08752	0.15582	
3119.0	0.0	0.09814	0.15546	
3120.0	0.0	0.10803	0.14062	
3121.0	0.0	0.11719	0.14941	
3122.0	0.0	0.12415	0.14795	
3123.0	0.0	0.13147	0.15253	
3124.0	0.0	0.1377	0.15143	
3125.0	0.0	0.14539	0.15546	
3126.0	0.0	0.15179	0.15875	
3127.0	0.0	0.15857	0.15912	
3128.0	0.0	0.16406	0.15894	
3129.0	0.0	0.16937	0.1571	
3130.0	0.0	0.17285	0.1463	
3131.0	0.0	0.17725	0.14886	
3132.0	0.0	0.17908	0.13055	
3133.0	0.0	0.18164	0.13696	
3134.0	0.0	0.18127	0.13156	
3135.0	0.0	0.18164	0.12817	
3136.0	0.0	0.17999	0.12158	
3137.0	0.0	0.17761	0.1192	
3138.0	0.0	0.17432	0.10254	
3139.0	0.0	0.1723	0.10675	
3140.0	0.0	0.16882	0.09393	
3141.0	0.0	0.16626	0.08057	
3142.0	0.0	0.16223	0.07562	
3143.0	0.0	0.16077	0.06537	
3144.0	0.0	0.15875	0.06372	
3145.0	0.0	0.15967	0.06519	
3146.0	0.0	0.1615	0.06024	
3147.0	0.0	0.16663	0.05237	
3148.0	0.0	0.17139	0.05383	
3149.0	0.0	0.17834	0.05237	
3150.0	0.0	0.1842	0.05328	
3151.0	0.0	0.19006	0.05255	
3152.0	0.0	0.19373	0.04211	
3153.0	0.0	0.19702	0.04871	
3154.0	0.0	0.19739	0.04834	
3155.0	0.0	0.19757	0.04486	
3156.0	0.0	0.19556	0.05136	
3157.0	0.0	0.19299	0.0575	
3158.0	0.0	0.18896	0.05328	
3159.0	0.0	0.18457	0.06281	
3160.0	0.0	0.17908	0.05988	
3161.0	0.0	0.17395	0.06354	
3162.0	0.0	0.16846	0.06537	
3163.0	0.0	0.16296	0.06226	
3164.0	0.0	0.15619	0.06445	
3165.0	0.0	0.15125	0.07617	
3166.0	0.0	0.14392	0.07983	
3167.0	0.0	0.13916	0.08093	
3168.0	0.0	0.13257	0.08505	
3169.0	0.0	0.12817	0.08057	
3170.0	0.0	0.12231	0.09338	
3171.0	0.0	0.11829	0.09668	
3172.0	0.0	0.11353	0.10364	
3173.0	0.0	0.10876	0.10913	
3174.0	0.0	0.10291	0.11792	
3175.0	0.0	0.09814	0.12341	
3176.0	0.0	0.09247	0.12524	
3177.0	0.0	0.08899	0.14703	
3178.0	0.0	0.0835	0.15216	
3179.0	0.0	0.07983	0.16809	
3180.0	0.0	0.07581	0.16928	
3181.0	0.0	0.07361	0.17743	
3182.0	0.0	0.06958	0.1761	
3183.0	0.0	0.06592	0.19336	
3184.0	0.0	0.06226	0.18823	
3185.0	0.0	0.06042	0.19263	
3186.0	0.0	0.05786	0.20361	
3187.0	0.0	0.05896	0.20581	
3188.0	0.0	0.06299	0.21204	
3189.0	0.0	0.07141	0.20453	
3190.0	0.0	0.07874	0.20764	
3191.0	0.0	0.08716	0.20123	
3192.0	0.0	0.09229	0.19739	
3193.0	0.0	0.09851	0.20105	
3194.0	0.0	0.10437	0.18622	
3195.0	0.0	0.11243	0.19171	
3196.0	0.0	0.12085	0.18915	
3197.0	0.0	0.13257	0.18988	
3198.0	0.0	0.14374	0.18091	
3199.0	0.0	0.15674	0.18988	
3200.0	0.0	0.16809	0.17889	
3201.0	0.0	0.17944	0.18146	
3202.0	0.0	0.18787	0.18036	
3203.0	0.0	0.19647	0.1908	
3204.0	0.0	0.20398	0.1908	
3205.0	0.0	0.21185	0.19702	
3206.0	0.0	0.21899	0.20618	
3207.0	0.0	0.22668	0.20746	
3208.0	0.0	0.23328	0.21167	
3209.0	0.0	0.24023	0.20929	
3210.0	0.0	0.24536	0.21552	
3211.0	0.0	0.25159	0.20856	
3212.0	0.0	0.25598	0.20508	
3213.0	0.0	0.26147	0.20251	
3214.0	0.0	0.26404	0.20801	
3215.0	0.0	0.2666	0.20233	
3216.0	0.0	0.26733	0.21126	
3217.0	0.0	0.26788	0.21259	
3218.0	0.0	0.26678	0.20398	
3219.0	0.0	0.26697	0.20581	
3220.0	0.0	0.26404	0.20892	
3221.0	0.0	0.26367	0.20911	
3222.0	0.0	0.26038	0.21057	
3223.0	0.0	0.25745	0.22449	
3224.0	0.0	0.25488	0.21643	
3225.0	0.0	0.25433	0.23401	
3226.0	0.0	0.25415	0.22504	
3227.0	0.0	0.25763	0.2298	
3228.0	0.0	0.25964	0.2395	
3229.0	0.0	0.26404	0.24252	
3230.0	0.0	0.2666	0.23364	
3231.0	0.0	0.27026	0.24078	
3232.0	0.0	0.27173	0.23584	
3233.0	0.0	0.27466	0.24902	
3234.0	0.0	0.27539	0.23969	
3235.0	0.0	0.27649	0.24573	
3236.0	0.0	0.27539	0.24829	
3237.0	0.0	0.27557	0.26459	
3238.0	0.0	0.27319	0.25433	
3239.0	0.0	0.271	0.27045	
3240.0	0.0	0.2677	0.26166	
3241.0	0.0	0.26532	0.26294	
3242.0	0.0	0.26147	0.27283	
3243.0	0.0	0.26001	0.27759	
3244.0	0.0	0.25671	0.27008	
3245.0	0.0	0.25562	0.28157	
3246.0	0.0	0.25305	0.28436	
3247.0	0.0	0.25214	0.28564	
3248.0	0.0	0.25012	0.28381	
3249.0	0.0	0.24939	0.28152	
3250.0	0.0	0.24683	0.28693	
3251.0	0.0	0.24536	0.28455	
3252.0	0.0	0.24225	0.29681	
3253.0	0.0	0.24133	0.29004	
3254.0	0.0	0.23822	0.29663	
3255.0	0.0	0.2373	0.29324	
3256.0	0.0	0.23474	0.30029	
3257.0	0.0	0.23346	0.30011	
3258.0	0.0	0.23163	0.30908	
3259.0	0.0	0.23199	0.31	
3260.0	0.0	0.23035	0.30414	
3261.0	0.0	0.23218	0.30945	
3262.0	0.0	0.23328	0.31293	
3263.0	0.0	0.23657	0.31018	
3264.0	0.0	0.23969	0.31549	
3265.0	0.0	0.24591	0.32538	
3266.0	0.0	0.25269	0.32318	
3267.0	0.0	0.26294	0.32135	
3268.0	0.0	0.27319	0.33508	
3269.0	0.0	0.28564	0.33527	
3270.0	0.0	0.29626	0.33856	
3271.0	0.0	0.30652	0.34167	
3272.0	0.0	0.31274	0.33765	
3273.0	0.0	0.31787	0.35742	
3274.0	0.0	0.31787	0.35083	
3275.0	0.0	0.31696	0.36108	
3276.0	0.0	0.31567	0.37115	
3277.0	0.0	0.31421	0.39404	
3278.0	0.0	0.31018	0.40576	
3279.0	0.0	0.30377	0.40979	
3280.0	0.0	0.29205	0.42645	
3281.0	0.0	0.28015	0.4325	
3282.0	0.0	0.2666	0.45135	
3283.0	0.0	0.25488	0.46838	
3284.0	0.0	0.24207	0.48303	
3285.0	0.0	0.23291	0.50336	
3286.0	0.0	0.22375	0.5191	
3287.0	0.0	0.2168	0.54419	
3288.0	0.0	0.20947	0.56122	
3289.0	0.0	0.20288	0.57239	
3290.0	0.0	0.19647	0.60132	
3291.0	0.0	0.19189	0.62073	
3292.0	0.0	0.18896	0.6427	
3293.0	0.0	0.1897	0.66577	
3294.0	0.0	0.19263	0.69104	
3295.0	0.0	0.19958	0.70898	
3296.0	0.0	0.20801	0.73169	
3297.0	0.0	0.21973	0.74487	
3298.0	0.0	0.23199	0.75879	
3299.0	0.0	0.24683	0.7674	
3300.0	0.0	0.26147	0.77948	
3301.0	0.0	0.27722	0.77966	
3302.0	0.0	0.29224	0.78021	
3303.0	0.0	0.30707	0.7804	
3304.0	0.0	0.31989	0.77051	
3305.0	0.0	0.33215	0.77582	
3306.0	0.0	0.34167	0.76831	
3307.0	0.0	0.35083	0.75861	
3308.0	0.0	0.35669	0.74597	
3309.0	0.0	0.36182	0.74359	
3310.0	0.0	0.36511	0.73169	
3311.0	0.0	0.36768	0.72144	
3312.0	0.0	0.36768	0.71063	
3313.0	0.0	0.36932	0.68958	
3314.0	0.0	0.37042	0.68262	
3315.0	0.0	0.37262	0.66998	
3316.0	0.0	0.37427	0.65424	
3317.0	0.0	0.37555	0.64215	
3318.0	0.0	0.3761	0.62128	
3319.0	0.0	0.37646	0.62036	
3320.0	0.0	0.37372	0.6048	
3321.0	0.0	0.37189	0.60901	
3322.0	0.0	0.36658	0.5929	
3323.0	0.0	0.36328	0.58997	
3324.0	0.0	0.35669	0.59381	
3325.0	0.0	0.35266	0.59143	
3326.0	0.0	0.34662	0.58887	
3327.0	0.0	0.34186	0.58813	
3328.0	0.0	0.3349	0.58685	
3329.0	0.0	0.33051	0.58575	
3330.0	0.0	0.3241	0.58484	
3331.0	0.0	0.3197	0.58392	
3332.0	0.0	0.31421	0.58749	
3333.0	0.0	0.31128	0.58887	
3334.0	0.0	0.30725	0.58392	
3335.0	0.0	0.30432	0.58621	
3336.0	0.0	0.30103	0.58484	
3337.0	0.0	0.29883	0.58887	
3338.0	0.0	0.29553	0.59106	
3339.0	0.0	0.2937	0.5918	
3340.0	0.0	0.28949	0.58942	
3341.0	0.0	0.28784	0.58484	
3342.0	0.0	0.28381	0.58557	
3343.0	0.0	0.28125	0.58099	
3344.0	0.0	0.27795	0.58191	
3345.0	0.0	0.27612	0.57532	
3346.0	0.0	0.27356	0.57312	
3347.0	0.0	0.27209	0.57019	
3348.0	0.0	0.27063	0.56543	
3349.0	0.0	0.2688	0.56653	
3350.0	0.0	0.2666	0.55682	
3351.0	0.0	0.26422	0.56232	
3352.0	0.0	0.26147	0.55774	
3353.0	0.0	0.25909	0.55811	
3354.0	0.0	0.25525	0.54895	
3355.0	0.0	0.25378	0.55627	
3356.0	0.0	0.25067	0.55243	
3357.0	0.0	0.24866	0.54675	
3358.0	0.0	0.24554	0.53467	
3359.0	0.0	0.2428	0.53577	
3360.0	0.0	0.2384	0.53174	
3361.0	0.0	0.23529	0.53448	
3362.0	0.0	0.23071	0.52881	
3363.0	0.0	0.22888	0.53375	
3364.0	0.0	0.22888	0.52277	
3365.0	0.0	0.2319	0.5246	
3366.0	0.0	0.23438	0.52258	
3367.0	0.0	0.2384	0.52698	
3368.0	0.0	0.23877	0.51489	
3369.0	0.0	0.2395	0.51379	
3370.0	0.0	0.23914	0.51178	
3371.0	0.0	0.24115	0.50409	
3372.0	0.0	0.24426	0.50098	
3373.0	0.0	0.25067	0.50262	
3374.0	0.0	0.25635	0.49915	
3375.0	0.0	0.26477	0.50418	
3376.0	0.0	0.27209	0.4964	
3377.0	0.0	0.27979	0.49805	
3378.0	0.0	0.28455	0.50299	
3379.0	0.0	0.29041	0.49915	
3380.0	0.0	0.2948	0.50317	
3381.0	0.0	0.30139	0.51068	
3382.0	0.0	0.30652	0.50739	
3383.0	0.0	0.31348	0.51471	
3384.0	0.0	0.31934	0.51306	
3385.0	0.0	0.32666	0.5072	
3386.0	0.0	0.33252	0.51471	
3387.0	0.0	0.33911	0.50519	
3388.0	0.0	0.3446	0.51297	
3389.0	0.0	0.35046	0.50171	
3390.0	0.0	0.35468	0.50793	
3391.0	0.0	0.35907	0.50519	
3392.0	0.0	0.362	0.50244	
3393.0	0.0	0.36475	0.49622	
3394.0	0.0	0.36621	0.48486	
3395.0	0.0	0.36786	0.49548	
3396.0	0.0	0.36841	0.48596	
3397.0	0.0	0.36987	0.479	
3398.0	0.0	0.37097	0.48303	
3399.0	0.0	0.37427	0.47644	
3400.0	0.0	0.37646	0.47955	
3401.0	0.0	0.38232	0.47424	
3402.0	0.0	0.38855	0.47607	
3403.0	0.0	0.39734	0.47003	
3404.0	0.0	0.4054	0.46161	
3405.0	0.0	0.41382	0.43945	
3406.0	0.0	0.41931	0.4259	
3407.0	0.0	0.42554	0.39807	
3408.0	0.0	0.42883	0.36383	
3409.0	0.0	0.4325	0.31375	
3410.0	0.0	0.43341	0.2677	
3411.0	0.0	0.43286	0.22467	
3412.0	0.0	0.4259	0.17871	
3413.0	0.0	0.41565	0.14941	
3414.0	0.0	0.39844	0.11975	
3415.0	0.0	0.37646	0.10345	
3416.0	0.0	0.34863	0.09027	
3417.0	0.0	0.31531	0.08917	
3418.0	0.0	0.27942	0.0835	
3419.0	0.0	0.24243	0.09174	
3420.0	0.0	0.20361	0.09979	
3421.0	0.0	0.16672	0.11279	
3422.0	0.0	0.13	0.1333	
3423.0	0.0	0.09705	0.13495	
3424.0	0.0	0.06592	0.14392	
3425.0	0.0	0.0379	0.16223	
3426.0	0.0	0.01208	0.1734	
3427.0	0.0	-0.00916	0.18878	
3428.0	0.0	-0.0282	0.20956	
3429.0	0.0	-0.04248	0.22293	
3430.0	0.0	-0.0542	0.22375	
3431.0	0.0	-0.06189	0.2428	
3432.0	0.0	-0.0672	0.24518	
3433.0	0.0	-0.06812	0.26514	
3434.0	0.0	-0.0672	0.26166	
3435.0	0.0	-0.06226	0.27795	
3436.0	0.0	-0.0575	0.2688	
3437.0	0.0	-0.04944	0.26495	
3438.0	0.0	-0.04211	0.26862	
3439.0	0.0	-0.03223	0.27283	
3440.0	0.0	-0.02344	0.26715	
3441.0	0.0	-0.01245	0.25031	
3442.0	0.0	-0.00293	0.23529	
3443.0	0.0	0.00842	0.21844	
3444.0	0.0	0.01849	0.19556	
3445.0	0.0	0.02911	0.1637	
3446.0	0.0	0.03845	0.12781	
3447.0	0.0	0.05017	0.10492	
3448.0	0.0	0.06189	0.06519	
3449.0	0.0	0.07709	0.04358	
3450.0	0.0	0.09576	0.00494	
3451.0	0.0	0.1192	-0.02344	
3452.0	0.0	0.14062	-0.05365	
3453.0	0.0	0.16296	-0.08908	
3454.0	0.0	0.18164	-0.12726	
3455.0	0.0	0.19995	-0.15601	
3456.0	0.0	0.21625	-0.19427	
3457.0	0.0	0.23383	-0.2168	
3458.0	0.0	0.25049	-0.23877	
3459.0	0.0	0.2688	-0.26147	
3460.0	0.0	0.28711	-0.27557	
3461.0	0.0	0.30798	-0.30322	
3462.0	0.0	0.32739	-0.31348	
3463.0	0.0	0.3479	-0.32208	
3464.0	0.0	0.36658	-0.32886	
3465.0	0.0	0.3869	-0.336	
3466.0	0.0	0.40613	-0.34003	
3467.0	0.0	0.42664	-0.3349	
3468.0	0.0	0.44476	-0.32373	
3469.0	0.0	0.46436	-0.32245	
3470.0	0.0	0.48157	-0.31476	
3471.0	0.0	0.49878	-0.30084	
3472.0	0.0	0.51343	-0.30029	
3473.0	0.0	0.52881	-0.28528	
3474.0	0.0	0.54126	-0.27631	
3475.0	0.0	0.55444	-0.25653	
3476.0	0.0	0.5658	-0.2536	
3477.0	0.0	0.57733	-0.23218	
3478.0	0.0	0.58594	-0.23145	
3479.0	0.0	0.59344	-0.2265	
3480.0	0.0	0.60022	-0.21387	
3481.0	0.0	0.60718	-0.20947	
3482.0	0.0	0.61157	-0.22009	
3483.0	0.0	0.6167	-0.21405	
3484.0	0.0	0.6189	-0.20581	
3485.0	0.0	0.62036	-0.2113	
3486.0	0.0	0.61963	-0.2157	
3487.0	0.0	0.62073	-0.20453	
3488.0	0.0	0.62183	-0.21826	
3489.0	0.0	0.62439	-0.21231	
3490.0	0.0	0.62512	-0.22375	
3491.0	0.0	0.62695	-0.22064	
3492.0	0.0	0.62567	-0.23126	
3493.0	0.0	0.62402	-0.22742	
3494.0	0.0	0.61926	-0.2341	
3495.0	0.0	0.61377	-0.2276	
3496.0	0.0	0.60498	-0.23071	
3497.0	0.0	0.59509	-0.2179	
3498.0	0.0	0.58356	-0.22797	
3499.0	0.0	0.57129	-0.21606	
3500.0	0.0	0.55664	-0.22449	
3501.0	0.0	0.54126	-0.22778	
3502.0	0.0	0.52368	-0.21863	
3503.0	0.0	0.50684	-0.22211	
3504.0	0.0	0.48816	-0.23126	
3505.0	0.0	0.47168	-0.21771	
3506.0	0.0	0.45337	-0.2265	
3507.0	0.0	0.43652	-0.22577	
3508.0	0.0	0.41895	-0.21112	
3509.0	0.0	0.4021	-0.20526	
3510.0	0.0	0.38452	-0.21094	
3511.0	0.0	0.36841	-0.2135	
3512.0	0.0	0.35193	-0.19894	
3513.0	0.0	0.33655	-0.20654	
3514.0	0.0	0.32025	-0.20178	
3515.0	0.0	0.30505	-0.19373	
3516.0	0.0	0.28802	-0.19922	
3517.0	0.0	0.27246	-0.1983	
3518.0	0.0	0.25598	-0.19135	
3519.0	0.0	0.2406	-0.18622	
3520.0	0.0	0.22375	-0.18402	
3521.0	0.0	0.20819	-0.18301	
3522.0	0.0	0.19153	-0.17267	
3523.0	0.0	0.17651	-0.16681	
3524.0	0.0	0.15967	-0.16223	
3525.0	0.0	0.14429	-0.15472	
3526.0	0.0	0.12799	-0.14575	
3527.0	0.0	0.11261	-0.1333	
3528.0	0.0	0.09668	-0.12158	
3529.0	0.0	0.08386	-0.10657	
3530.0	0.0	0.07269	-0.0959	
3531.0	0.0	0.06445	-0.07764	
3532.0	0.0	0.05585	-0.06152	
3533.0	0.0	0.04926	-0.04285	
3534.0	0.0	0.04083	-0.03461	
3535.0	0.0	0.03223	-0.02692	
3536.0	0.0	0.02344	-0.00687	
3537.0	0.0	0.01813	0.01501	
3538.0	0.0	0.01355	0.02014	
3539.0	0.0	0.01337	0.039	
3540.0	0.0	0.01474	0.06409	
3541.0	0.0	0.02087	0.0802	
3542.0	0.0	0.02783	0.09892	
3543.0	0.0	0.03735	0.11884	
3544.0	0.0	0.04523	0.1366	
3545.0	0.0	0.05566	0.15729	
3546.0	0.0	0.06482	0.18036	
3547.0	0.0	0.07489	0.20984	
3548.0	0.0	0.08441	0.22705	
3549.0	0.0	0.09521	0.25726	
3550.0	0.0	0.104	0.26971	
3551.0	0.0	0.11389	0.29755	
3552.0	0.0	0.12268	0.30908	
3553.0	0.0	0.13367	0.32062	
3554.0	0.0	0.14246	0.33636	
3555.0	0.0	0.15308	0.34863	
3556.0	0.0	0.1615	0.35669	
3557.0	0.0	0.17029	0.36896	
3558.0	0.0	0.17661	0.37738	
3559.0	0.0	0.18457	0.40247	
3560.0	0.0	0.19025	0.41043	
3561.0	0.0	0.19702	0.41748	
3562.0	0.0	0.20178	0.43451	
3563.0	0.0	0.20709	0.43488	
3564.0	0.0	0.20911	0.45227	
3565.0	0.0	0.21167	0.46417	
3566.0	0.0	0.21423	0.47388	
3567.0	0.0	0.21954	0.48184	
3568.0	0.0	0.22632	0.49127	
3569.0	0.0	0.23291	0.49237	
3570.0	0.0	0.2395	0.50299	
3571.0	0.0	0.24701	0.50885	
3572.0	0.0	0.25214	0.5202	
3573.0	0.0	0.25873	0.52881	
3574.0	0.0	0.26331	0.52808	
3575.0	0.0	0.26953	0.54108	
3576.0	0.0	0.27356	0.5376	
3577.0	0.0	0.27887	0.55408	
3578.0	0.0	0.28271	0.55554	
3579.0	0.0	0.28748	0.55957	
3580.0	0.0	0.28967	0.5647	
3581.0	0.0	0.2937	0.57019	
3582.0	0.0	0.2948	0.56543	
3583.0	0.0	0.29846	0.56122	
3584.0	0.0	0.30011	0.53448	
3585.0	0.0	0.30249	0.52679	
3586.0	0.0	0.30286	0.48853	
3587.0	0.0	0.30249	0.46747	
3588.0	0.0	0.30249	0.41931	
3589.0	0.0	0.30634	0.36273	
3590.0	0.0	0.31201	0.30872	
3591.0	0.0	0.3208	0.26221	
3592.0	0.0	0.32703	0.22266	
3593.0	0.0	0.33398	0.20581	
3594.0	0.0	0.33618	0.19647	
3595.0	0.0	0.33545	0.19281	
3596.0	0.0	0.33252	0.1908	
3597.0	0.0	0.32922	0.21313	
3598.0	0.0	0.32556	0.24133	
3599.0	0.0	0.32538	0.30103	
3600.0	0.0	0.32611	0.37994	
3601.0	0.0	0.33105	0.45593	
3602.0	0.0	0.33636	0.52766	
3603.0	0.0	0.34424	0.58887	
3604.0	0.0	0.35046	0.64984	
3605.0	0.0	0.35779	0.69489	
3606.0	0.0	0.36365	0.73737	
3607.0	0.0	0.37115	0.79028	
3608.0	0.0	0.3783	0.81885	
3609.0	0.0	0.38745	0.85254	
3610.0	0.0	0.39734	0.8844	
3611.0	0.0	0.41272	0.90912	
3612.0	0.0	0.42664	0.91736	
3613.0	0.0	0.44312	0.95068	
3614.0	0.0	0.45776	0.96021	
3615.0	0.0	0.47333	0.98016	
3616.0	0.0	0.48633	0.99641	
3617.0	0.0	0.50098	1.00177	
3618.0	0.0	0.51453	1.01514	
3619.0	0.0	0.53027	1.03455	
3620.0	0.0	0.54474	1.05212	
3621.0	0.0	0.5603	1.06641	
3622.0	0.0	0.57495	1.08051	
3623.0	0.0	0.59125	1.09167	
3624.0	0.0	0.60681	1.10614	
3625.0	0.0	0.62183	1.12738	
3626.0	0.0	0.63574	1.14075	
3627.0	0.0	0.65039	1.15759	
3628.0	0.0	0.66321	1.17041	
3629.0	0.0	0.67603	1.18469	
3630.0	0.0	0.68738	1.19952	
3631.0	0.0	0.70001	1.21399	
3632.0	0.0	0.71155	1.22644	
3633.0	0.0	0.72363	1.24219	
3634.0	0.0	0.7337	1.25977	
3635.0	0.0	0.74487	1.26746	
3636.0	0.0	0.75366	1.27661	
3637.0	0.0	0.76208	1.28284	
3638.0	0.0	0.76831	1.29016	
3639.0	0.0	0.77271	1.29822	
3640.0	0.0	0.77673	1.29712	
3641.0	0.0	0.77838	1.31268	
3642.0	0.0	0.7793	1.32275	
3643.0	0.0	0.77856	1.33411	
3644.0	0.0	0.77509	1.33813	
3645.0	0.0	0.77014	1.35205	
3646.0	0.0	0.76245	1.35425	
3647.0	0.0	0.75549	1.35938	
3648.0	0.0	0.7489	1.35406	
3649.0	0.0	0.74414	1.35379	
3650.0	0.0	0.73975	1.34399	
3651.0	0.0	0.73993	1.3266	
3652.0	0.0	0.73975	1.31946	
3653.0	0.0	0.74341	1.31543	
3654.0	0.0	0.7467	1.29492	
3655.0	0.0	0.75293	1.28467	
3656.0	0.0	0.75769	1.27112	
3657.0	0.0	0.76575	1.25574	
3658.0	0.0	0.77087	1.24246	
3659.0	0.0	0.77765	1.23358	
3660.0	0.0	0.78314	1.21765	
3661.0	0.0	0.79028	1.20978	
3662.0	0.0	0.79541	1.19421	
3663.0	0.0	0.802	1.19385	
3664.0	0.0	0.80585	1.18323	
3665.0	0.0	0.81006	1.17535	
3666.0	0.0	0.81152	1.16162	
3667.0	0.0	0.81262	1.15741	
3668.0	0.0	0.81152	1.14093	
3669.0	0.0	0.80878	1.12527	
3670.0	0.0	0.80164	1.10184	
3671.0	0.0	0.79395	1.08545	
3672.0	0.0	0.78168	1.06311	
3673.0	0.0	0.77051	1.04773	
3674.0	0.0	0.75806	1.03271	
3675.0	0.0	0.74835	1.01935	
3676.0	0.0	0.73755	0.99371	
3677.0	0.0	0.73096	0.99042	
3678.0	0.0	0.72437	0.97687	
3679.0	0.0	0.72107	0.97028	
3680.0	0.0	0.71906	0.95691	
3681.0	0.0	0.71851	0.95068	
3682.0	0.0	0.71777	0.93782	
3683.0	0.0	0.71924	0.93604	
3684.0	0.0	0.7196	0.91571	
3685.0	0.0	0.7207	0.92303	
3686.0	0.0	0.72034	0.90692	
3687.0	0.0	0.7207	0.90417	
3688.0	0.0	0.7196	0.88623	
3689.0	0.0	0.72107	0.88806	
3690.0	0.0	0.72034	0.8725	
3691.0	0.0	0.71997	0.85547	
3692.0	0.0	0.71484	0.8269	
3693.0	0.0	0.70825	0.82063	
3694.0	0.0	0.69891	0.79028	
3695.0	0.0	0.68848	0.77618	
3696.0	0.0	0.67511	0.76813	
3697.0	0.0	0.66211	0.75339	
3698.0	0.0	0.64709	0.74011	
3699.0	0.0	0.63281	0.72839	
3700.0	0.0	0.61816	0.70898	
3701.0	0.0	0.60352	0.70752	
3702.0	0.0	0.58575	0.69763	
3703.0	0.0	0.56854	0.69122	
3704.0	0.0	0.54932	0.68481	
3705.0	0.0	0.53247	0.69104	
3706.0	0.0	0.51453	0.68829	
3707.0	0.0	0.49988	0.68317	
3708.0	0.0	0.48523	0.68994	
3709.0	0.0	0.4726	0.68582	
3710.0	0.0	0.45996	0.67987	
3711.0	0.0	0.44861	0.68115	
3712.0	0.0	0.43726	0.67401	
3713.0	0.0	0.42883	0.66577	
3714.0	0.0	0.41858	0.65657	
3715.0	0.0	0.41052	0.64471	
3716.0	0.0	0.40109	0.63904	
3717.0	0.0	0.39331	0.62531	
3718.0	0.0	0.38379	0.60938	
3719.0	0.0	0.37573	0.6026	
3720.0	0.0	0.36768	0.58173	
3721.0	0.0	0.36035	0.57074	
3722.0	0.0	0.35248	0.55243	
3723.0	0.0	0.34589	0.54291	
3724.0	0.0	0.33856	0.52881	
3725.0	0.0	0.33325	0.5094	
3726.0	0.0	0.32849	0.48706	
3727.0	0.0	0.32739	0.46729	
3728.0	0.0	0.32593	0.43469	
3729.0	0.0	0.32611	0.41638	
3730.0	0.0	0.32501	0.37646	
3731.0	0.0	0.32446	0.35046	
3732.0	0.0	0.32007	0.32886	
3733.0	0.0	0.31677	0.28271	
3734.0	0.0	0.31055	0.25049	
3735.0	0.0	0.30469	0.20782	
3736.0	0.0	0.29626	0.16351	
3737.0	0.0	0.28839	0.10712	
3738.0	0.0	0.27814	0.05969	
3739.0	0.0	0.2699	0.00549	
3740.0	0.0	0.25928	-0.05127	
3741.0	0.0	0.25122	-0.104	
3742.0	0.0	0.2439	-0.16516	
3743.0	0.0	0.23914	-0.21295	
3744.0	0.0	0.23364	-0.25397	
3745.0	0.0	0.22888	-0.29672	
3746.0	0.0	0.22467	-0.34351	
3747.0	0.0	0.22119	-0.39642	
3748.0	0.0	0.2168	-0.43936	
3749.0	0.0	0.21497	-0.48175	
3750.0	0.0	0.21185	-0.5127	
3751.0	0.0	0.21222	-0.54785	
3752.0	0.0	0.21222	-0.58594	
3753.0	0.0	0.21478	-0.62109	
3754.0	0.0	0.21643	-0.65414	
3755.0	0.0	0.22046	-0.68307	
3756.0	0.0	0.22266	-0.7164	
3757.0	0.0	0.22705	-0.75073	
3758.0	0.0	0.23016	-0.78287	
3759.0	0.0	0.23602	-0.81244	
3760.0	0.0	0.24207	-0.84503	
3761.0	0.0	0.24921	-0.87598	
3762.0	0.0	0.2536	-0.90912	
3763.0	0.0	0.25946	-0.9381	
3764.0	0.0	0.26239	-0.97137	
3765.0	0.0	0.26569	-0.9982	
3766.0	0.0	0.26569	-1.02393	
3767.0	0.0	0.26971	-1.04768	
3768.0	0.0	0.27393	-1.07332	
3769.0	0.0	0.27832	-1.10097	
3770.0	0.0	0.28088	-1.11868	
3771.0	0.0	0.28125	-1.13782	
3772.0	0.0	0.27979	-1.15617	
3773.0	0.0	0.27869	-1.17334	
3774.0	0.0	0.27722	-1.18213	
3775.0	0.0	0.27649	-1.19261	
3776.0	0.0	0.27539	-1.20158	
3777.0	0.0	0.27539	-1.21033	
3778.0	0.0	0.27502	-1.22246	
3779.0	0.0	0.27539	-1.22607	
3780.0	0.0	0.27411	-1.23811	
3781.0	0.0	0.27411	-1.24603	
3782.0	0.0	0.27173	-1.24915	
3783.0	0.0	0.27155	-1.2453	
3784.0	0.0	0.27008	-1.24887	
3785.0	0.0	0.26898	-1.2518	
3786.0	0.0	0.26733	-1.25317	
3787.0	0.0	0.2666	-1.25821	
3788.0	0.0	0.26459	-1.26224	
3789.0	0.0	0.26294	-1.26581	
3790.0	0.0	0.26019	-1.27267	
3791.0	0.0	0.26001	-1.27579	
3792.0	0.0	0.25708	-1.28082	
3793.0	0.0	0.25562	-1.27446	
3794.0	0.0	0.25195	-1.27396	
3795.0	0.0	0.24957	-1.26544	
3796.0	0.0	0.24335	-1.26567	
3797.0	0.0	0.23969	-1.25977	
3798.0	0.0	0.23401	-1.25716	
3799.0	0.0	0.22906	-1.25958	
3800.0	0.0	0.22302	-1.25821	
3801.0	0.0	0.2179	-1.25793	
3802.0	0.0	0.21167	-1.26073	
3803.0	0.0	0.20654	-1.25967	
3804.0	0.0	0.20178	-1.25739	
3805.0	0.0	0.20068	-1.26096	
3806.0	0.0	0.19958	-1.26553	
3807.0	0.0	0.2005	-1.26407	
3808.0	0.0	0.20068	-1.27419	
3809.0	0.0	0.20288	-1.27432	
3810.0	0.0	0.20306	-1.27428	
3811.0	0.0	0.20508	-1.27588	
3812.0	0.0	0.20453	-1.27913	
3813.0	0.0	0.20508	-1.27414	
3814.0	0.0	0.20343	-1.2627	
3815.0	0.0	0.20361	-1.25478	
3816.0	0.0	0.20087	-1.24471	
3817.0	0.0	0.20032	-1.2345	
3818.0	0.0	0.19812	-1.22598	
3819.0	0.0	0.19702	-1.21326	
3820.0	0.0	0.19446	-1.20273	
3821.0	0.0	0.19373	-1.18593	
3822.0	0.0	0.19263	-1.17155	
3823.0	0.0	0.19299	-1.15494	
3824.0	0.0	0.19263	-1.14084	
3825.0	0.0	0.19373	-1.12317	
3826.0	0.0	0.19409	-1.1076	
3827.0	0.0	0.19592	-1.08875	
3828.0	0.0	0.19629	-1.07593	
3829.0	0.0	0.1983	-1.05679	
3830.0	0.0	0.19849	-1.03821	
3831.0	0.0	0.20013	-1.01999	
3832.0	0.0	0.19867	-1.00333	
3833.0	0.0	0.19904	-0.98488	
3834.0	0.0	0.19702	-0.96826	
3835.0	0.0	0.19519	-0.95206	
3836.0	0.0	0.19336	-0.93567	
3837.0	0.0	0.19208	-0.9213	
3838.0	0.0	0.1897	-0.9066	
3839.0	0.0	0.1897	-0.89374	
3840.0	0.0	0.18787	-0.87982	
3841.0	0.0	0.18686	-0.8681	
3842.0	0.0	0.18457	-0.85602	
3843.0	0.0	0.18329	-0.84229	
3844.0	0.0	0.18018	-0.83345	
3845.0	0.0	0.18036	-0.81812	
3846.0	0.0	0.18201	-0.80493	
3847.0	0.0	0.1853	-0.78973	
3848.0	0.0	0.18695	-0.78085	
3849.0	0.0	0.18878	-0.76712	
3850.0	0.0	0.18622	-0.76044	
3851.0	0.0	0.18567	-0.75604	
3852.0	0.0	0.18384	-0.74432	
3853.0	0.0	0.18475	-0.73238	
3854.0	0.0	0.18604	-0.72565	
3855.0	0.0	0.19098	-0.71173	
3856.0	0.0	0.19574	-0.70175	
3857.0	0.0	0.20178	-0.68893	
3858.0	0.0	0.20618	-0.67621	
3859.0	0.0	0.21075	-0.66458	
3860.0	0.0	0.2135	-0.65277	
3861.0	0.0	0.21716	-0.63647	
3862.0	0.0	0.21936	-0.62018	
3863.0	0.0	0.2243	-0.60699	
3864.0	0.0	0.22778	-0.59326	
3865.0	0.0	0.23309	-0.57404	
3866.0	0.0	0.2373	-0.57211	
3867.0	0.0	0.24353	-0.55756	
3868.0	0.0	0.24792	-0.54584	
3869.0	0.0	0.25415	-0.53833	
3870.0	0.0	0.25928	-0.52679	
3871.0	0.0	0.26477	-0.52478	
3872.0	0.0	0.26843	-0.51562	
3873.0	0.0	0.27338	-0.50537	
3874.0	0.0	0.27594	-0.4942	
3875.0	0.0	0.27979	-0.48853	
3876.0	0.0	0.28198	-0.48047	
3877.0	0.0	0.28546	-0.47095	
3878.0	0.0	0.28638	-0.47498	
3879.0	0.0	0.28821	-0.47058	
3880.0	0.0	0.28839	-0.46381	
3881.0	0.0	0.29004	-0.46179	
3882.0	0.0	0.2915	-0.45703	
3883.0	0.0	0.29626	-0.44604	
3884.0	0.0	0.30103	-0.45135	
3885.0	0.0	0.3067	-0.44916	
3886.0	0.0	0.31165	-0.45557	
3887.0	0.0	0.31659	-0.4541	
3888.0	0.0	0.32007	-0.45566	
3889.0	0.0	0.32373	-0.45062	
3890.0	0.0	0.32446	-0.44604	
3891.0	0.0	0.32666	-0.44897	
3892.0	0.0	0.32593	-0.44128	
3893.0	0.0	0.32593	-0.43121	
3894.0	0.0	0.3252	-0.42682	
3895.0	0.0	0.3241	-0.41968	
3896.0	0.0	0.32117	-0.42407	
3897.0	0.0	0.32062	-0.41986	
3898.0	0.0	0.31824	-0.41254	
3899.0	0.0	0.31677	-0.40302	
3900.0	0.0	0.31421	-0.41162	
3901.0	0.0	0.31494	-0.39954	
3902.0	0.0	0.31421	-0.40869	
3903.0	0.0	0.31567	-0.39871	
3904.0	0.0	0.31476	-0.40356	
3905.0	0.0	0.31696	-0.3988	
3906.0	0.0	0.31677	-0.40851	
3907.0	0.0	0.3175	-0.40997	
3908.0	0.0	0.31677	-0.40686	
3909.0	0.0	0.31567	-0.41785	
3910.0	0.0	0.31384	-0.42535	
3911.0	0.0	0.31348	-0.42517	
3912.0	0.0	0.31146	-0.42426	
3913.0	0.0	0.31	-0.42078	
3914.0	0.0	0.30688	-0.43121	
3915.0	0.0	0.30432	-0.42645	
3916.0	0.0	0.29919	-0.43378	
3917.0	0.0	0.29553	-0.43771	
3918.0	0.0	0.29004	-0.43286	
3919.0	0.0	0.28601	-0.43121	
3920.0	0.0	0.27924	-0.43359	
3921.0	0.0	0.27466	-0.43982	
3922.0	0.0	0.26807	-0.42993	
3923.0	0.0	0.26184	-0.43469	
3924.0	0.0	0.25488	-0.42023	
3925.0	0.0	0.24792	-0.41492	
3926.0	0.0	0.23877	-0.4129	
3927.0	0.0	0.23181	-0.39166	
3928.0	0.0	0.22485	-0.39185	
3929.0	0.0	0.22119	-0.38104	
3930.0	0.0	0.21771	-0.37115	
3931.0	0.0	0.21588	-0.36346	
3932.0	0.0	0.21185	-0.34882	
3933.0	0.0	0.20966	-0.33765	
3934.0	0.0	0.20764	-0.32693	
3935.0	0.0	0.20801	-0.30441	
3936.0	0.0	0.20911	-0.29691	
3937.0	0.0	0.21277	-0.27283	
3938.0	0.0	0.21643	-0.25067	
3939.0	0.0	0.22192	-0.22943	
3940.0	0.0	0.2276	-0.20966	
3941.0	0.0	0.23547	-0.1842	
3942.0	0.0	0.24316	-0.1507	
3943.0	0.0	0.25488	-0.12854	
3944.0	0.0	0.2666	-0.10693	
3945.0	0.0	0.28326	-0.07819	
3946.0	0.0	0.30103	-0.06006	
3947.0	0.0	0.32153	-0.03827	
3948.0	0.0	0.34351	-0.01776	
3949.0	0.0	0.36768	-0.00275	
3950.0	0.0	0.39221	-0.00385	
3951.0	0.0	0.41858	-0.00229	
3952.0	0.0	0.44385	-0.00403	
3953.0	0.0	0.46765	0.00549	
3954.0	0.0	0.48779	0.00018	
3955.0	0.0	0.50464	0.01135	
3956.0	0.0	0.51599	0.01959	
3957.0	0.0	0.52515	0.03021	
3958.0	0.0	0.52954	0.03406	
3959.0	0.0	0.52917	0.0444	
3960.0	0.0	0.51855	0.04568	
3961.0	0.0	0.50317	0.039	
3962.0	0.0	0.4812	0.03827	
3963.0	0.0	0.45886	0.02765	
3964.0	0.0	0.43433	0.01776	
3965.0	0.0	0.41016	0.00366	
3966.0	0.0	0.38452	-0.01685	
3967.0	0.0	0.35962	-0.03754	
3968.0	0.0	0.33398	-0.06665	
3969.0	0.0	0.31183	-0.09613	
3970.0	0.0	0.28931	-0.12543	
3971.0	0.0	0.27008	-0.14813	
3972.0	0.0	0.25085	-0.17944	
3973.0	0.0	0.23456	-0.21552	
3974.0	0.0	0.21716	-0.25378	
3975.0	0.0	0.20142	-0.28093	
3976.0	0.0	0.18127	-0.33371	
3977.0	0.0	0.16113	-0.36584	
3978.0	0.0	0.13641	-0.40558	
3979.0	0.0	0.11151	-0.44	
3980.0	0.0	0.0824	-0.47058	
3981.0	0.0	0.05182	-0.49109	
3982.0	0.0	0.01575	-0.50061	
3983.0	0.0	-0.02161	-0.52386	
3984.0	0.0	-0.06445	-0.54474	
3985.0	0.0	-0.1084	-0.55939	
3986.0	0.0	-0.15527	-0.59161	
3987.0	0.0	-0.20142	-0.6123	
3988.0	0.0	-0.24756	-0.65204	
3989.0	0.0	-0.29041	-0.70038	
3990.0	0.0	-0.33344	-0.75732	
3991.0	0.0	-0.37381	-0.79285	
3992.0	0.0	-0.41492	-0.84274	
3993.0	0.0	-0.45383	-0.88284	
3994.0	0.0	-0.49548	-0.91791	
3995.0	0.0	-0.53522	-0.95471	
3996.0	0.0	-0.57751	-0.98712	
3997.0	0.0	-0.62036	-1.01358	
3998.0	0.0	-0.66833	-1.04617	
3999.0	0.0	-0.71576	-1.07382	
4000.0	0.0	-0.75952	-1.09946	
4001.0	0.0	-0.80072	-1.11795	
4002.0	0.0	-0.84009	-1.14093	
4003.0	0.0	-0.87708	-1.16235	
4004.0	0.0	-0.91168	-1.17746	
4005.0	0.0	-0.94478	-1.18542	
4006.0	0.0	-0.97559	-1.1922	
4007.0	0.0	-1.00488	-1.19604	
4008.0	0.0	-1.03271	-1.20717	
4009.0	0.0	-1.05798	-1.22836	
4010.0	0.0	-1.08289	-1.24232	
4011.0	0.0	-1.10623	-1.25885	
4012.0	0.0	-1.1283	-1.27524	
4013.0	0.0	-1.14844	-1.28943	
4014.0	0.0	-1.16721	-1.30092	
4015.0	0.0	-1.18066	-1.31342	
4016.0	0.0	-1.19247	-1.32431	
4017.0	0.0	-1.19875	-1.3353	
4018.0	0.0	-1.20374	-1.34441	
4019.0	0.0	-1.2019	-1.35004	
4020.0	0.0	-1.19595	-1.36194	
4021.0	0.0	-1.17865	-1.37036	
4022.0	0.0	-1.15347	-1.37714	
4023.0	0.0	-1.11932	-1.38066	
4024.0	0.0	-1.08307	-1.38661	
4025.0	0.0	-1.04384	-1.38986	
4026.0	0.0	-1.00873	-1.40012	
4027.0	0.0	-0.97467	-1.40465	
4028.0	0.0	-0.94867	-1.41129	
4029.0	0.0	-0.93182	-1.40286	
4030.0	0.0	-0.92706	-1.38574	
4031.0	0.0	-0.9353	-1.34766	
4032.0	0.0	-0.96222	-1.2946	
4033.0	0.0	-1.00122	-1.22507	
4034.0	0.0	-1.03802	-1.15723	
4035.0	0.0	-1.07172	-1.07295	
4036.0	0.0	-1.10303	-0.98749	
4037.0	0.0	-1.13077	-0.89465	
4038.0	0.0	-1.15677	-0.80713	
4039.0	0.0	-1.17664	-0.68738	
4040.0	0.0	-1.19307	-0.55261	
4041.0	0.0	-1.20282	-0.42114	
4042.0	0.0	-1.21033	-0.31714	
4043.0	0.0	-1.21582	-0.20856	
4044.0	0.0	-1.22552	-0.11407	
4045.0	0.0	-1.23624	-0.01941	
4046.0	0.0	-1.24722	0.08734	
4047.0	0.0	-1.2518	0.15729	
4048.0	0.0	-1.24686	0.2373	
4049.0	0.0	-1.22736	0.31146	
4050.0	0.0	-1.1965	0.37756	
4051.0	0.0	-1.15594	0.44714	
4052.0	0.0	-1.1131	0.51013	
4053.0	0.0	-1.06462	0.56635	
4054.0	0.0	-1.01239	0.61359	
4055.0	0.0	-0.94986	0.66504	
4056.0	0.0	-0.88	0.71246	
4057.0	0.0	-0.80017	0.75366	
4058.0	0.0	-0.71631	0.80017	
4059.0	0.0	-0.62613	0.83643	
4060.0	0.0	-0.53503	0.87067	
4061.0	0.0	-0.44073	0.90546	
4062.0	0.0	-0.3479	0.92468	
4063.0	0.0	-0.25195	0.93732	
4064.0	0.0	-0.15747	0.93164	
4065.0	0.0	-0.06262	0.91827	
4066.0	0.0	0.02893	0.88751	
4067.0	0.0	0.11572	0.86206	
4068.0	0.0	0.19427	0.83276	
4069.0	0.0	0.2677	0.81445	
4070.0	0.0	0.33325	0.79376	
4071.0	0.0	0.39917	0.77728	
4072.0	0.0	0.45886	0.76868	
4073.0	0.0	0.51599	0.76062	
4074.0	0.0	0.56506	0.74542	
4075.0	0.0	0.61084	0.74213	
4076.0	0.0	0.64819	0.74011	
4077.0	0.0	0.67969	0.74268	
4078.0	0.0	0.70459	0.73682	
4079.0	0.0	0.72546	0.73517	
4080.0	0.0	0.74341	0.71906	
4081.0	0.0	0.76282	0.67804	
4082.0	0.0	0.78223	0.62521	
4083.0	0.0	0.80273	0.55225	
4084.0	0.0	0.8183	0.46985	
4085.0	0.0	0.82837	0.3783	
4086.0	0.0	0.8313	0.27832	
4087.0	0.0	0.83368	0.18695	
4088.0	0.0	0.8335	0.08276	
4089.0	0.0	0.83862	-0.0011	
4090.0	0.0	0.84521	-0.07352	
4091.0	0.0	0.8584	-0.13678	
4092.0	0.0	0.87195	-0.19537	
4093.0	0.0	0.88879	-0.23639	
4094.0	0.0	0.90399	-0.26404	
4095.0	0.0	0.91882	-0.27283	
4096.0	0.0	0.92908	-0.2644	
4097.0	0.0	0.9408	-0.23474	
4098.0	0.0	0.95032	-0.19922	
4099.0	0.0	0.96167	-0.15106	
4100.0	0.0	0.97137	-0.10071	
4101.0	0.0	0.98492	-0.03735	
4102.0	0.0	0.99756	0.02051	
4103.0	0.0	1.01257	0.07489	
4104.0	0.0	1.02759	0.11719	
4105.0	0.0	1.04517	0.1322	
4106.0	0.0	1.06274	0.1322	
4107.0	0.0	1.08362	0.11884	
4108.0	0.0	1.10413	0.04504	
4109.0	0.0	1.12756	-0.03625	
4110.0	0.0	1.14917	-0.14868	
4111.0	0.0	1.16895	-0.23877	
4112.0	0.0	1.18799	-0.323	
4113.0	0.0	1.20557	-0.39496	
4114.0	0.0	1.2215	-0.45831	
4115.0	0.0	1.23633	-0.52515	
4116.0	0.0	1.24805	-0.58044	
4117.0	0.0	1.25812	-0.63208	
4118.0	0.0	1.26343	-0.68408	
4119.0	0.0	1.26233	-0.73425	
4120.0	0.0	1.25244	-0.77472	
4121.0	0.0	1.23486	-0.80942	
4122.0	0.0	1.20264	-0.8313	
4123.0	0.0	1.15723	-0.83405	
4124.0	0.0	1.09753	-0.81445	
4125.0	0.0	1.02924	-0.77133	
4126.0	0.0	0.95654	-0.70349	
4127.0	0.0	0.88898	-0.60086	
4128.0	0.0	0.82581	-0.46637	
4129.0	0.0	0.7738	-0.33893	
4130.0	0.0	0.73132	-0.22028	
4131.0	0.0	0.70166	-0.11234	
4132.0	0.0	0.67969	0.0033	
4133.0	0.0	0.66833	0.09229	
4134.0	0.0	0.66394	0.18604	
4135.0	0.0	0.66357	0.26276	
4136.0	0.0	0.66174	0.33746	
4137.0	0.0	0.65918	0.40686	
4138.0	0.0	0.65222	0.46381	
4139.0	0.0	0.64526	0.52423	
4140.0	0.0	0.63721	0.57806	
4141.0	0.0	0.63318	0.61853	
4142.0	0.0	0.63098	0.64783	
4143.0	0.0	0.63281	0.67145	
4144.0	0.0	0.63391	0.68372	
4145.0	0.0	0.63904	0.70532	
4146.0	0.0	0.64526	0.71539	
4147.0	0.0	0.65515	0.74927	
4148.0	0.0	0.6665	0.78333	
4149.0	0.0	0.68738	0.81152	
4150.0	0.0	0.71173	0.85071	
4151.0	0.0	0.74084	0.8941	
4152.0	0.0	0.77161	0.92834	
4153.0	0.0	0.8064	0.96204	
4154.0	0.0	0.8421	0.98584	
4155.0	0.0	0.88037	0.99042	
4156.0	0.0	0.91772	0.98328	
4157.0	0.0	0.95618	0.95837	
4158.0	0.0	0.99042	0.91479	
4159.0	0.0	1.02466	0.86591	
4160.0	0.0	1.05359	0.80566	
4161.0	0.0	1.08325	0.75549	
4162.0	0.0	1.10907	0.69855	
4163.0	0.0	1.13525	0.64691	
4164.0	0.0	1.15869	0.58145	
4165.0	0.0	1.18213	0.51984	
4166.0	0.0	1.20264	0.47186	
4167.0	0.0	1.22113	0.41492	
4168.0	0.0	1.23926	0.33948	
4169.0	0.0	1.255	0.28711	
4170.0	0.0	1.26343	0.258	
4171.0	0.0	1.27002	0.20947	
4172.0	0.0	1.26855	0.17834	
4173.0	0.0	1.26416	0.15179	
4174.0	0.0	1.25977	0.12671	
4175.0	0.0	1.2616	0.11426	
4176.0	0.0	1.26453	0.09998	
4177.0	0.0	1.26892	0.08881	
4178.0	0.0	1.27002	0.06427	
4179.0	0.0	1.27734	0.03314	
4180.0	0.0	1.28687	-0.00769	
4181.0	0.0	1.30078	-0.05292	
4182.0	0.0	1.31323	-0.11023	
4183.0	0.0	1.32422	-0.17029	
4184.0	0.0	1.33337	-0.23877	
4185.0	0.0	1.34253	-0.29187	
4186.0	0.0	1.34766	-0.35779	
4187.0	0.0	1.35278	-0.40796	
4188.0	0.0	1.35352	-0.45941	
4189.0	0.0	1.35791	-0.50574	
4190.0	0.0	1.35974	-0.56323	
4191.0	0.0	1.36176	-0.62183	
4192.0	0.0	1.36157	-0.6687	
4193.0	0.0	1.3645	-0.72308	
4194.0	0.0	1.36523	-0.76044	
4195.0	0.0	1.36523	-0.80397	
4196.0	0.0	1.36377	-0.84247	
4197.0	0.0	1.36414	-0.87451	
4198.0	0.0	1.36157	-0.90857	
4199.0	0.0	1.35754	-0.94171	
4200.0	0.0	1.34766	-0.97513	
4201.0	0.0	1.33337	-1.00342	
4202.0	0.0	1.31177	-1.03986	
4203.0	0.0	1.28888	-1.05721	
4204.0	0.0	1.2605	-1.08408	
4205.0	0.0	1.23083	-1.10797	
4206.0	0.0	1.19714	-1.13022	
4207.0	0.0	1.16309	-1.14551	
4208.0	0.0	1.12756	-1.1554	
4209.0	0.0	1.09387	-1.16702	
4210.0	0.0	1.05835	-1.17307	
4211.0	0.0	1.02759	-1.17389	
4212.0	0.0	0.99719	-1.18217	
4213.0	0.0	0.97009	-1.19142	
4214.0	0.0	0.94318	-1.21042	
4215.0	0.0	0.91919	-1.22772	
4216.0	0.0	0.89355	-1.24347	
4217.0	0.0	0.86902	-1.26256	
4218.0	0.0	0.84045	-1.27222	
4219.0	0.0	0.81152	-1.28485	
4220.0	0.0	0.77856	-1.29588	
4221.0	0.0	0.74744	-1.30788	
4222.0	0.0	0.71283	-1.31973	
4223.0	0.0	0.68005	-1.33315	
4224.0	0.0	0.6449	-1.3391	
4225.0	0.0	0.61377	-1.34885	
4226.0	0.0	0.58044	-1.35764	
4227.0	0.0	0.54858	-1.36812	
4228.0	0.0	0.51013	-1.37242	
4229.0	0.0	0.46985	-1.37837	
4230.0	0.0	0.42773	-1.38538	
4231.0	0.0	0.38928	-1.38959	
4232.0	0.0	0.35358	-1.39151	
4233.0	0.0	0.32227	-1.38016	
4234.0	0.0	0.29297	-1.36693	
4235.0	0.0	0.26752	-1.34024	
4236.0	0.0	0.2428	-1.31374	
4237.0	0.0	0.22229	-1.28595	
4238.0	0.0	0.20288	-1.26682	
4239.0	0.0	0.18311	-1.2469	
4240.0	0.0	0.15985	-1.23761	
4241.0	0.0	0.13422	-1.2372	
4242.0	0.0	0.1062	-1.24448	
4243.0	0.0	0.08167	-1.25725	
4244.0	0.0	0.0575	-1.2811	
